0,555,3
1,555,3
2,555,3
3,553,3
4,551,3
5,549,3
6,549,3
7,549,3
8,551,3
9,553,3
10,556,3
11,560,3
12,564,3
13,567,3
14,571,3
15,571,3
16,572,3
17,572,3
18,571,3
19,564,3
20,564,3
21,564,3
22,563,3
23,562,3
24,562,3
25,561,3
26,562,3
27,564,3
28,566,3
29,569,3
30,572,3
31,576,3
32,579,3
33,581,3
34,582,3
35,583,3
36,583,3
37,581,3
38,579,3
39,578,3
40,576,3
41,576,3
42,576,3
43,558,3
44,558,3
45,558,3
46,557,3
47,558,3
48,557,3
49,557,3
50,556,3
51,516,3
52,515,3
53,514,3
54,512,3
55,511,3
56,510,3
57,509,3
58,509,3
59,510,3
60,510,3
61,510,3
62,510,3
63,509,3
64,509,3
65,509,3
66,509,3
67,509,3
68,509,3
69,508,3
70,508,3
71,507,3
72,507,3
73,506,3
74,505,3
75,505,3
76,504,3
77,504,3
78,504,3
79,503,3
80,503,3
81,502,3
82,501,3
83,502,3
84,502,3
85,502,3
86,503,3
87,503,3
88,503,3
89,503,3
90,502,3
91,502,3
92,503,3
93,504,3
94,506,3
95,507,3
96,508,3
97,509,3
98,509,3
99,508,3
100,508,3
101,508,3
102,509,3
103,509,3
104,510,3
105,510,3
106,510,3
107,510,3
108,510,3
109,509,3
110,509,3
111,509,3
112,510,3
113,509,3
114,509,3
115,509,3
116,513,3
117,514,3
118,515,3
119,515,3
120,514,3
121,515,3
122,515,3
123,515,3
124,514,3
125,518,3
126,517,3
127,517,3
128,518,3
129,518,3
130,518,3
131,518,3
132,518,3
133,518,3
134,518,3
135,518,3
136,517,3
137,517,3
138,517,3
139,517,3
140,518,3
141,518,3
142,517,3
143,517,3
144,518,3
145,518,3
146,518,3
147,518,3
148,517,3
149,517,3
150,517,3
151,518,3
152,518,3
153,518,3
154,518,3
155,518,3
156,517,3
157,516,3
158,515,3
159,516,3
160,516,3
161,516,3
162,516,3
163,516,3
164,516,3
165,516,3
166,515,3
167,515,3
168,516,3
169,516,3
170,515,3
171,515,3
172,653,3
173,655,3
174,656,3
175,657,3
176,659,3
177,660,3
178,662,3
179,663,3
180,664,3
181,665,3
182,667,3
183,667,3
184,667,3
185,667,3
186,669,3
187,671,3
188,672,3
189,658,3
190,651,3
191,648,3
192,646,3
193,643,3
194,641,3
195,639,3
196,636,3
197,633,3
198,631,3
199,628,3
200,625,3
201,621,3
202,618,3
203,614,3
204,611,3
205,609,3
206,606,3
207,602,3
208,598,3
209,595,3
210,591,3
211,588,3
212,585,3
213,581,3
214,574,3
215,567,3
216,565,3
217,562,3
218,558,3
219,556,3
220,554,3
221,551,3
222,549,3
223,547,3
224,545,3
225,543,3
226,540,3
227,538,3
228,535,3
229,532,3
230,530,3
231,528,3
232,526,3
233,524,3
234,522,3
235,520,3
236,519,3
237,516,3
238,512,3
239,510,3
240,508,3
241,507,3
242,506,3
243,504,3
244,502,3
245,501,3
246,500,3
247,500,3
248,500,3
249,500,3
250,500,3
251,500,3
252,499,3
253,498,3
254,497,3
255,496,3
256,495,3
257,495,3
258,495,3
259,496,3
260,496,3
261,497,3
262,493,3
263,493,3
264,493,3
265,494,3
266,495,3
267,495,3
268,495,3
269,495,3
270,495,3
271,546,3
272,545,3
273,545,3
274,544,3
275,543,3
276,542,3
277,541,3
278,540,3
279,538,3
280,537,3
281,536,3
282,535,3
283,534,3
284,533,3
285,532,3
286,531,3
287,531,3
288,529,3
289,528,3
290,527,3
291,525,3
292,524,3
293,505,3
294,506,3
295,506,3
296,506,3
297,506,3
298,505,3
299,504,3
300,504,3
301,503,3
302,502,3
303,502,3
304,502,3
305,502,3
306,502,3
307,502,3
308,503,3
309,503,3
310,503,3
311,503,3
312,503,3
313,503,3
314,504,3
315,505,3
316,505,3
317,505,3
318,504,3
319,504,3
320,504,3
321,504,3
322,504,3
323,503,3
324,503,3
325,504,3
326,505,3
327,506,3
328,507,3
329,508,3
330,508,3
331,508,3
332,508,3
333,507,3
334,508,3
335,508,3
336,508,3
337,508,3
338,508,3
339,507,3
340,507,3
341,507,3
342,507,3
343,507,3
344,507,3
345,508,3
346,508,3
347,508,3
348,509,3
349,509,3
350,509,3
351,510,3
352,510,3
353,510,3
354,510,3
355,511,3
356,511,3
357,512,3
358,512,3
359,512,3
360,513,3
361,513,3
362,513,3
363,514,3
364,514,3
365,513,3
366,518,3
367,518,3
368,518,3
369,518,3
370,517,3
371,516,3
372,515,3
373,515,3
374,515,3
375,515,3
376,516,3
377,516,3
378,516,3
379,516,3
380,516,3
381,516,3
382,516,3
383,516,3
384,516,3
385,516,3
386,516,3
387,517,3
388,517,3
389,513,3
390,513,3
391,513,3
392,513,3
393,512,3
394,512,3
395,512,3
396,511,3
397,511,3
398,511,3
399,510,3
400,510,3
401,510,3
402,510,3
403,509,3
404,509,3
405,509,3
406,510,3
407,509,3
408,509,3
409,509,3
410,509,3
411,508,3
412,508,3
413,508,3
414,509,3
415,509,3
416,509,3
417,509,3
418,508,3
419,508,3
420,508,3
421,508,3
422,508,3
423,507,3
424,507,3
425,507,3
426,508,3
427,508,3
428,508,3
429,508,3
430,508,3
431,507,3
432,506,3
433,506,3
434,506,3
435,505,3
436,506,3
437,506,3
438,505,3
439,505,3
440,503,3
441,503,3
442,503,3
443,504,3
444,504,3
445,504,3
446,505,3
447,505,3
448,505,3
449,505,3
450,503,3
451,503,3
452,504,3
453,503,3
454,505,3
455,505,3
456,506,3
457,505,3
458,504,3
459,504,3
460,504,3
461,508,3
462,508,3
463,508,3
464,508,3
465,508,3
466,509,3
467,509,3
468,510,3
469,511,3
470,511,3
471,510,3
472,509,3
473,508,3
474,507,3
475,507,3
476,506,3
477,506,3
478,506,3
479,505,3
480,507,3
481,507,3
482,509,3
483,512,3
484,518,3
485,524,3
486,531,3
487,539,3
488,548,3
489,557,3
490,568,3
491,578,3
492,591,3
493,604,3
494,619,3
495,635,3
496,653,3
497,672,3
498,691,3
499,710,3
500,728,3
501,747,3
502,787,3
503,807,3
504,838,3
505,849,3
506,854,3
507,853,3
508,847,3
509,835,3
510,816,3
511,790,3
512,757,3
513,717,3
514,669,3
515,614,3
516,552,3
517,487,3
518,420,3
519,353,3
520,290,3
521,232,3
522,178,3
523,130,3
524,88,3
525,52,3
526,0,3
527,0,3
528,0,3
529,0,3
530,13,3
531,37,3
532,67,3
533,101,3
534,139,3
535,178,3
536,219,3
537,259,3
538,297,3
539,331,3
540,362,3
541,389,3
542,413,3
543,435,3
544,453,3
545,469,3
546,483,3
547,495,3
548,506,3
549,515,3
550,526,3
551,526,3
552,533,3
553,533,3
554,535,3
555,536,3
556,538,3
557,511,3
558,512,3
559,512,3
560,513,3
561,513,3
562,513,3
563,513,3
564,513,3
565,513,3
566,514,3
567,514,3
568,514,3
569,514,3
570,514,3
571,514,3
572,513,3
573,513,3
574,513,3
575,516,3
576,516,3
577,516,3
578,516,3
579,516,3
580,518,3
581,518,3
582,517,3
583,517,3
584,518,3
585,518,3
586,517,3
587,517,3
588,517,3
589,517,3
590,517,3
591,517,3
592,517,3
593,516,3
594,516,3
595,516,3
596,516,3
597,515,3
598,515,3
599,514,3
600,514,3
601,514,3
602,514,3
603,514,3
604,513,3
605,513,3
606,513,3
607,514,3
608,515,3
609,515,3
610,515,3
611,515,3
612,515,3
613,515,3
614,515,3
615,516,3
616,516,3
617,515,3
618,515,3
619,514,3
620,514,3
621,513,3
622,512,3
623,512,3
624,511,3
625,511,3
626,511,3
627,511,3
628,511,3
629,510,3
630,510,3
631,509,3
632,509,3
633,508,3
634,508,3
635,508,3
636,509,3
637,509,3
638,510,3
639,510,3
640,510,3
641,510,3
642,510,3
643,509,3
644,507,3
645,507,3
646,507,3
647,507,3
648,507,3
649,506,3
650,506,3
651,506,3
652,506,3
653,842,3
654,825,3
655,802,3
656,773,3
657,737,3
658,692,3
659,637,3
660,575,3
661,508,3
662,438,3
663,369,3
664,304,3
665,243,3
666,187,3
667,136,3
668,92,3
669,20,3
670,0,3
671,0,3
672,0,3
673,0,3
674,0,3
675,27,3
676,59,3
677,97,3
678,139,3
679,512,3
680,512,3
681,512,3
682,512,3
683,512,3
684,512,3
685,511,3
686,511,3
687,511,3
688,511,3
689,511,3
690,511,3
691,511,3
692,511,3
693,511,3
694,512,3
695,513,3
696,513,3
697,514,3
698,513,3
699,513,3
700,513,3
701,520,3
702,520,3
703,519,3
704,519,3
705,520,3
706,521,3
707,521,3
708,521,3
709,521,3
710,521,3
711,520,3
712,521,3
713,521,3
714,520,3
715,518,3
716,517,3
717,515,3
718,514,3
719,515,3
720,517,3
721,517,3
722,520,3
723,523,3
724,528,3
725,534,3
726,540,3
727,548,3
728,556,3
729,566,3
730,576,3
731,586,3
732,598,3
733,612,3
734,627,3
735,644,3
736,662,3
737,680,3
738,697,3
739,717,3
740,757,3
741,778,3
742,817,3
743,817,3
744,846,3
745,846,3
746,854,3
747,858,3
748,855,3
749,845,3
750,828,3
751,806,3
752,777,3
753,741,3
754,697,3
755,645,3
756,586,3
757,522,3
758,456,3
759,388,3
760,323,3
761,262,3
762,206,3
763,156,3
764,15,3
765,0,3
766,0,3
767,0,3
768,0,3
769,16,3
770,40,3
771,71,3
772,106,3
773,549,3
774,549,3
775,550,3
776,550,3
777,550,3
778,550,3
779,551,3
780,551,3
781,551,3
782,551,3
783,552,3
784,552,3
785,551,3
786,549,3
787,547,3
788,546,3
789,544,3
790,541,3
791,540,3
792,538,3
793,537,3
794,536,3
795,535,3
796,533,3
797,518,3
798,518,3
799,517,3
800,516,3
801,514,3
802,514,3
803,512,3
804,511,3
805,510,3
806,510,3
807,511,3
808,511,3
809,511,3
810,509,3
811,508,3
812,508,3
813,507,3
814,507,3
815,508,3
816,505,3
817,504,3
818,503,3
819,502,3
820,503,3
821,502,3
822,501,3
823,501,3
824,502,3
825,501,3
826,501,3
827,501,3
828,502,3
829,503,3
830,504,3
831,504,3
832,505,3
833,505,3
834,505,3
835,504,3
836,504,3
837,504,3
838,504,3
839,504,3
840,503,3
841,502,3
842,502,3
843,501,3
844,502,3
845,502,3
846,502,3
847,503,3
848,503,3
849,503,3
850,504,3
851,504,3
852,505,3
853,506,3
854,507,3
855,507,3
856,507,3
857,507,3
858,507,3
859,507,3
860,506,3
861,505,3
862,507,3
863,507,3
864,508,3
865,508,3
866,508,3
867,508,3
868,508,3
869,508,3
870,508,3
871,508,3
872,508,3
873,509,3
874,509,3
875,510,3
876,510,3
877,510,3
878,509,3
879,509,3
880,510,3
881,511,3
882,510,3
883,510,3
884,509,3
885,510,3
886,510,3
887,510,3
888,510,3
889,510,3
890,509,3
891,509,3
892,508,3
893,507,3
894,506,3
895,506,3
896,506,3
897,505,3
898,507,3
899,508,3
900,511,3
901,514,3
902,520,3
903,526,3
904,533,3
905,540,3
906,549,3
907,567,3
908,590,3
909,604,3
910,620,3
911,637,3
912,656,3
913,676,3
914,695,3
915,714,3
916,733,3
917,755,3
918,777,3
919,798,3
920,817,3
921,833,3
922,846,3
923,853,3
924,855,3
925,850,3
926,839,3
927,821,3
928,766,3
929,680,3
930,680,3
931,624,3
932,561,3
933,495,3
934,426,3
935,357,3
936,293,3
937,234,3
938,180,3
939,131,3
940,87,3
941,49,3
942,18,3
943,0,3
944,0,3
945,0,3
946,16,3
947,45,3
948,80,3
949,120,3
950,163,3
951,207,3
952,251,3
953,292,3
954,330,3
955,366,3
956,397,3
957,425,3
958,448,3
959,469,3
960,487,3
961,502,3
962,513,3
963,522,3
964,528,3
965,532,3
966,535,3
967,538,3
968,538,3
969,538,3
970,538,3
971,539,3
972,539,3
973,540,3
974,543,3
975,545,3
976,548,3
977,551,3
978,554,3
979,555,3
980,556,3
981,556,3
982,556,3
983,554,3
984,553,3
985,553,3
986,553,3
987,553,3
988,555,3
989,556,3
990,558,3
991,559,3
992,562,3
993,565,3
994,568,3
995,569,3
996,570,3
997,570,3
998,570,3
999,570,3
1000,569,3
1001,568,3
1002,567,3
1003,566,3
1004,565,3
1005,565,3
1006,565,3
1007,566,3
1008,568,3
1009,570,3
1010,572,3
1011,574,3
1012,577,3
1013,577,3
1014,577,3
1015,576,3
1016,576,3
1017,575,3
1018,576,3
1019,576,3
1020,577,3
1021,577,3
1022,578,3
1023,579,3
1024,579,3
1025,580,3
1026,582,3
1027,584,3
1028,585,3
1029,586,3
1030,587,3
1031,587,3
1032,589,3
1033,589,3
1034,589,3
1035,589,3
1036,590,3
1037,590,3
1038,591,3
1039,591,3
1040,592,3
1041,592,3
1042,593,3
1043,593,3
1044,595,3
1045,597,3
1046,598,3
1047,599,3
1048,600,3
1049,600,3
1050,601,3
1051,602,3
1052,603,3
1053,604,3
1054,604,3
1055,604,3
1056,605,3
1057,605,3
1058,607,3
1059,608,3
1060,609,3
1061,616,3
1062,618,3
1063,619,3
1064,619,3
1065,621,3
1066,622,3
1067,624,3
1068,626,3
1069,627,3
1070,629,3
1071,629,3
1072,629,3
1073,629,3
1074,630,3
1075,631,3
1076,633,3
1077,635,3
1078,636,3
1079,637,3
1080,639,3
1081,641,3
1082,642,3
1083,644,3
1084,645,3
1085,646,3
1086,648,3
1087,649,3
1088,650,3
1089,652,3
1090,655,3
1091,656,3
1092,657,3
1093,657,3
1094,658,3
1095,658,3
1096,660,3
1097,661,3
1098,662,3
1099,662,3
1100,663,3
1101,664,3
1102,665,3
1103,667,3
1104,668,3
1105,669,3
1106,669,3
1107,670,3
1108,671,3
1109,672,3
1110,672,3
1111,673,3
1112,674,3
1113,674,3
1114,674,3
1115,674,3
1116,674,3
1117,675,3
1118,675,3
1119,676,3
1120,677,3
1121,677,3
1122,678,3
1123,678,3
1124,678,3
1125,678,3
1126,678,3
1127,679,3
1128,679,3
1129,679,3
1130,678,3
1131,678,3
1132,677,3
1133,677,3
1134,676,3
1135,676,3
1136,675,3
1137,673,3
1138,671,3
1139,671,3
1140,671,3
1141,670,3
1142,670,3
1143,668,3
1144,667,3
1145,666,3
1146,666,3
1147,665,3
1148,664,3
1149,662,3
1150,660,3
1151,658,3
1152,656,3
1153,655,3
1154,654,3
1155,652,3
1156,650,3
1157,648,3
1158,641,3
1159,641,3
1160,639,3
1161,634,3
1162,634,3
1163,632,3
1164,629,3
1165,626,3
1166,624,3
1167,621,3
1168,618,3
1169,615,3
1170,613,3
1171,610,3
1172,608,3
1173,605,3
1174,601,3
1175,597,3
1176,593,3
1177,590,3
1178,586,3
1179,581,3
1180,581,3
1181,576,3
1182,573,3
1183,570,3
1184,568,3
1185,565,3
1186,553,3
1187,552,3
1188,550,3
1189,547,3
1190,547,3
1191,546,3
1192,545,3
1193,543,3
1194,540,3
1195,538,3
1196,536,3
1197,534,3
1198,532,3
1199,530,3
1200,529,3
1201,527,3
1202,527,3
1203,526,3
1204,525,3
1205,524,3
1206,523,3
1207,522,3
1208,520,3
1209,520,3
1210,518,3
1211,518,3
1212,517,3
1213,516,3
1214,514,3
1215,514,3
1216,514,3
1217,513,3
1218,512,3
1219,512,3
1220,512,3
1221,512,3
1222,512,3
1223,512,3
1224,512,3
1225,512,3
1226,511,3
1227,511,3
1228,512,3
1229,511,3
1230,511,3
1231,512,3
1232,512,3
1233,512,3
1234,512,3
1235,511,3
1236,512,3
1237,512,3
1238,513,3
1239,513,3
1240,514,3
1241,514,3
1242,513,3
1243,513,3
1244,513,3
1245,514,3
1246,513,3
1247,513,3
1248,514,3
1249,514,3
1250,515,3
1251,515,3
1252,516,3
1253,515,3
1254,515,3
1255,515,3
1256,515,3
1257,515,3
1258,515,3
1259,515,3
1260,515,3
1261,515,3
1262,517,3
1263,516,3
1264,516,3
1265,516,3
1266,516,3
1267,517,3
1268,517,3
1269,517,3
1270,517,3
1271,517,3
1272,518,3
1273,518,3
1274,518,3
1275,518,3
1276,518,3
1277,518,3
1278,518,3
1279,518,3
1280,518,3
1281,519,3
1282,520,3
1283,520,3
1284,520,3
1285,519,3
1286,519,3
1287,519,3
1288,520,3
1289,520,3
1290,520,3
1291,520,3
1292,520,3
1293,520,3
1294,520,3
1295,519,3
1296,519,3
1297,519,3
1298,520,3
1299,520,3
1300,520,3
1301,519,3
1302,519,3
1303,519,3
1304,519,3
1305,518,3
1306,518,3
1307,518,3
1308,518,3
1309,519,3
1310,518,3
1311,518,3
1312,517,3
1313,517,3
1314,517,3
1315,516,3
1316,516,3
1317,517,3
1318,517,3
1319,517,3
1320,516,3
1321,516,3
1322,516,3
1323,515,3
1324,515,3
1325,515,3
1326,514,3
1327,514,3
1328,514,3
1329,515,3
1330,515,3
1331,516,3
1332,516,3
1333,515,3
1334,515,3
1335,515,3
1336,515,3
1337,514,3
1338,513,3
1339,513,3
1340,513,3
1341,513,3
1342,513,3
1343,512,3
1344,512,3
1345,511,3
1346,510,3
1347,509,3
1348,509,3
1349,509,3
1350,509,3
1351,509,3
1352,509,3
1353,508,3
1354,508,3
1355,508,3
1356,509,3
1357,508,3
1358,509,3
1359,509,3
1360,508,3
1361,508,3
1362,508,3
1363,508,3
1364,508,3
1365,507,3
1366,507,3
1367,507,3
1368,507,3
1369,507,3
1370,508,3
1371,508,3
1372,508,3
1373,508,3
1374,508,3
1375,508,3
1376,508,3
1377,508,3
1378,507,3
1379,507,3
1380,507,3
1381,507,3
1382,506,3
1383,506,3
1384,507,3
1385,506,3
1386,507,3
1387,507,3
1388,507,3
1389,507,3
1390,506,3
1391,506,3
1392,506,3
1393,506,3
1394,506,3
1395,506,3
1396,506,3
1397,507,3
1398,508,3
1399,508,3
1400,509,3
1401,508,3
1402,507,3
1403,507,3
1404,506,3
1405,506,3
1406,506,3
1407,507,3
1408,507,3
1409,507,3
1410,506,3
1411,506,3
1412,506,3
1413,506,3
1414,506,3
1415,505,3
1416,505,3
1417,505,3
1418,506,3
1419,506,3
1420,507,3
1421,507,3
1422,507,3
1423,506,3
1424,506,3
1425,505,3
1426,505,3
1427,505,3
1428,505,3
1429,506,3
1430,505,3
1431,505,3
1432,506,3
1433,506,3
1434,506,3
1435,506,3
1436,506,3
1437,507,3
1438,507,3
1439,508,3
1440,507,3
1441,508,3
1442,508,3
1443,508,3
1444,509,3
1445,509,3
1446,509,3
1447,508,3
1448,508,3
1449,509,3
1450,509,3
1451,510,3
1452,510,3
1453,510,3
1454,510,3
1455,510,3
1456,509,3
1457,509,3
1458,510,3
1459,510,3
1460,510,3
1461,511,3
1462,510,3
1463,509,3
1464,509,3
1465,510,3
1466,509,3
1467,509,3
1468,510,3
1469,510,3
1470,510,3
1471,510,3
1472,510,3
1473,509,3
1474,508,3
1475,508,3
1476,508,3
1477,509,3
1478,510,3
1479,509,3
1480,509,3
1481,510,3
1482,511,3
1483,511,3
1484,511,3
1485,510,3
1486,510,3
1487,509,3
1488,509,3
1489,509,3
1490,509,3
1491,509,3
1492,510,3
1493,511,3
1494,511,3
1495,512,3
1496,512,3
1497,511,3
1498,510,3
1499,510,3
1500,510,3
1501,510,3
1502,512,3
1503,513,3
1504,512,3
1505,511,3
1506,511,3
1507,512,3
1508,512,3
1509,512,3
1510,511,3
1511,511,3
1512,510,3
1513,510,3
1514,510,3
1515,509,3
1516,509,3
1517,510,3
1518,510,3
1519,510,3
1520,511,3
1521,511,3
1522,512,3
1523,512,3
1524,512,3
1525,513,3
1526,513,3
1527,513,3
1528,515,3
1529,515,3
1530,516,3
1531,517,3
1532,517,3
1533,518,3
1534,518,3
1535,519,3
1536,520,3
1537,521,3
1538,521,3
1539,522,3
1540,523,3
1541,525,3
1542,525,3
1543,526,3
1544,527,3
1545,528,3
1546,529,3
1547,531,3
1548,533,3
1549,534,3
1550,536,3
1551,537,3
1552,538,3
1553,537,3
1554,538,3
1555,538,3
1556,539,3
1557,539,3
1558,540,3
1559,541,3
1560,542,3
1561,543,3
1562,544,3
1563,545,3
1564,546,3
1565,547,3
1566,548,3
1567,548,3
1568,549,3
1569,550,3
1570,551,3
1571,551,3
1572,552,3
1573,552,3
1574,554,3
1575,555,3
1576,554,3
1577,553,3
1578,551,3
1579,549,3
1580,548,3
1581,547,3
1582,546,3
1583,544,3
1584,542,3
1585,541,3
1586,540,3
1587,539,3
1588,538,3
1589,537,3
1590,535,3
1591,532,3
1592,530,3
1593,528,3
1594,527,3
1595,525,3
1596,524,3
1597,523,3
1598,521,3
1599,520,3
1600,518,3
1601,518,3
1602,517,3
1603,516,3
1604,515,3
1605,514,3
1606,512,3
1607,512,3
1608,512,3
1609,512,3
1610,511,3
1611,511,3
1612,511,3
1613,511,3
1614,511,3
1615,510,3
1616,509,3
1617,508,3
1618,508,3
1619,508,3
1620,508,3
1621,507,3
1622,506,3
1623,505,3
1624,504,3
1625,505,3
1626,504,3
1627,504,3
1628,504,3
1629,504,3
1630,505,3
1631,505,3
1632,505,3
1633,505,3
1634,505,3
1635,505,3
1636,505,3
1637,504,3
1638,504,3
1639,504,3
1640,504,3
1641,504,3
1642,504,3
1643,504,3
1644,503,3
1645,503,3
1646,502,3
1647,502,3
1648,502,3
1649,503,3
1650,503,3
1651,503,3
1652,503,3
1653,503,3
1654,504,3
1655,504,3
1656,505,3
1657,506,3
1658,506,3
1659,506,3
1660,506,3
1661,506,3
1662,505,3
1663,505,3
1664,505,3
1665,505,3
1666,505,3
1667,505,3
1668,506,3
1669,507,3
1670,508,3
1671,508,3
1672,508,3
1673,509,3
1674,509,3
1675,509,3
1676,508,3
1677,509,3
1678,509,3
1679,510,3
1680,511,3
1681,511,3
1682,511,3
1683,512,3
1684,511,3
1685,510,3
1686,510,3
1687,510,3
1688,510,3
1689,510,3
1690,510,3
1691,510,3
1692,510,3
1693,510,3
1694,508,3
1695,505,3
1696,504,3
1697,503,3
1698,503,3
1699,503,3
1700,503,3
1701,504,3
1702,506,3
1703,509,3
1704,514,3
1705,520,3
1706,526,3
1707,533,3
1708,541,3
1709,550,3
1710,560,3
1711,571,3
1712,584,3
1713,597,3
1714,612,3
1715,627,3
1716,645,3
1717,663,3
1718,702,3
1719,742,3
1720,764,3
1721,785,3
1722,805,3
1723,821,3
1724,835,3
1725,844,3
1726,849,3
1727,847,3
1728,838,3
1729,823,3
1730,803,3
1731,776,3
1732,741,3
1733,698,3
1734,645,3
1735,586,3
1736,520,3
1737,452,3
1738,384,3
1739,319,3
1740,258,3
1741,202,3
1742,108,3
1743,9,3
1744,0,3
1745,0,3
1746,0,3
1747,0,3
1748,0,3
1749,10,3
1750,35,3
1751,66,3
1752,102,3
1753,143,3
1754,187,3
1755,230,3
1756,272,3
1757,311,3
1758,347,3
1759,379,3
1760,433,3
1761,433,3
1762,455,3
1763,474,3
1764,490,3
1765,502,3
1766,513,3
1767,521,3
1768,527,3
1769,531,3
1770,533,3
1771,535,3
1772,535,3
1773,536,3
1774,536,3
1775,537,3
1776,537,3
1777,538,3
1778,540,3
1779,541,3
1780,544,3
1781,546,3
1782,550,3
1783,552,3
1784,551,3
1785,551,3
1786,551,3
1787,550,3
1788,550,3
1789,550,3
1790,551,3
1791,552,3
1792,554,3
1793,557,3
1794,560,3
1795,562,3
1796,567,3
1797,569,3
1798,570,3
1799,570,3
1800,569,3
1801,569,3
1802,567,3
1803,566,3
1804,565,3
1805,564,3
1806,564,3
1807,565,3
1808,567,3
1809,568,3
1810,570,3
1811,572,3
1812,574,3
1813,576,3
1814,578,3
1815,578,3
1816,578,3
1817,577,3
1818,577,3
1819,577,3
1820,575,3
1821,575,3
1822,575,3
1823,575,3
1824,577,3
1825,577,3
1826,578,3
1827,580,3
1828,581,3
1829,582,3
1830,584,3
1831,584,3
1832,585,3
1833,586,3
1834,586,3
1835,587,3
1836,588,3
1837,588,3
1838,588,3
1839,589,3
1840,589,3
1841,589,3
1842,589,3
1843,590,3
1844,591,3
1845,593,3
1846,594,3
1847,596,3
1848,596,3
1849,597,3
1850,598,3
1851,599,3
1852,600,3
1853,601,3
1854,601,3
1855,602,3
1856,603,3
1857,603,3
1858,603,3
1859,605,3
1860,606,3
1861,607,3
1862,609,3
1863,609,3
1864,610,3
1865,611,3
1866,612,3
1867,613,3
1868,616,3
1869,618,3
1870,618,3
1871,619,3
1872,620,3
1873,621,3
1874,623,3
1875,624,3
1876,626,3
1877,627,3
1878,629,3
1879,629,3
1880,630,3
1881,632,3
1882,633,3
1883,635,3
1884,636,3
1885,637,3
1886,638,3
1887,639,3
1888,639,3
1889,640,3
1890,641,3
1891,642,3
1892,645,3
1893,646,3
1894,647,3
1895,649,3
1896,650,3
1897,651,3
1898,651,3
1899,653,3
1900,654,3
1901,655,3
1902,656,3
1903,658,3
1904,661,3
1905,662,3
1906,663,3
1907,664,3
1908,665,3
1909,665,3
1910,667,3
1911,669,3
1912,669,3
1913,671,3
1914,671,3
1915,671,3
1916,672,3
1917,674,3
1918,674,3
1919,675,3
1920,675,3
1921,674,3
1922,674,3
1923,674,3
1924,674,3
1925,674,3
1926,674,3
1927,675,3
1928,675,3
1929,675,3
1930,675,3
1931,675,3
1932,675,3
1933,674,3
1934,674,3
1935,674,3
1936,673,3
1937,673,3
1938,673,3
1939,673,3
1940,674,3
1941,673,3
1942,672,3
1943,672,3
1944,671,3
1945,671,3
1946,670,3
1947,668,3
1948,667,3
1949,667,3
1950,666,3
1951,665,3
1952,664,3
1953,663,3
1954,662,3
1955,660,3
1956,659,3
1957,657,3
1958,654,3
1959,652,3
1960,650,3
1961,648,3
1962,647,3
1963,644,3
1964,639,3
1965,635,3
1966,632,3
1967,630,3
1968,627,3
1969,625,3
1970,623,3
1971,619,3
1972,616,3
1973,613,3
1974,610,3
1975,607,3
1976,604,3
1977,602,3
1978,600,3
1979,597,3
1980,594,3
1981,591,3
1982,589,3
1983,586,3
1984,583,3
1985,580,3
1986,577,3
1987,574,3
1988,567,3
1989,564,3
1990,559,3
1991,559,3
1992,555,3
1993,555,3
1994,553,3
1995,551,3
1996,548,3
1997,545,3
1998,542,3
1999,540,3
2000,538,3
2001,537,3
2002,536,3
2003,535,3
2004,534,3
2005,534,3
2006,532,3
2007,531,3
2008,530,3
2009,528,3
2010,526,3
2011,524,3
2012,522,3
2013,521,3
2014,519,3
2015,518,3
2016,518,3
2017,517,3
2018,516,3
2019,515,3
2020,514,3
2021,513,3
2022,512,3
2023,512,3
2024,511,3
2025,511,3
2026,511,3
2027,511,3
2028,510,3
2029,509,3
2030,509,3
2031,509,3
2032,508,3
2033,507,3
2034,507,3
2035,507,3
2036,508,3
2037,509,3
2038,508,3
2039,507,3
2040,507,3
2041,508,3
2042,509,3
2043,509,3
2044,509,3
2045,510,3
2046,510,3
2047,510,3
2048,510,3
2049,511,3
2050,511,3
2051,511,3
2052,511,3
2053,511,3
2054,511,3
2055,512,3
2056,513,3
2057,514,3
2058,514,3
2059,515,3
2060,514,3
2061,514,3
2062,515,3
2063,515,3
2064,515,3
2065,515,3
2066,515,3
2067,515,3
2068,515,3
2069,516,3
2070,516,3
2071,516,3
2072,515,3
2073,516,3
2074,516,3
2075,517,3
2076,517,3
2077,517,3
2078,516,3
2079,516,3
2080,516,3
2081,516,3
2082,517,3
2083,518,3
2084,518,3
2085,517,3
2086,516,3
2087,516,3
2088,516,3
2089,516,3
2090,516,3
2091,516,3
2092,515,3
2093,515,3
2094,515,3
2095,515,3
2096,515,3
2097,516,3
2098,515,3
2099,515,3
2100,515,3
2101,515,3
2102,516,3
2103,516,3
2104,516,3
2105,516,3
2106,516,3
2107,516,3
2108,516,3
2109,516,3
2110,516,3
2111,515,3
2112,513,3
2113,513,3
2114,514,3
2115,514,3
2116,515,3
2117,514,3
2118,513,3
2119,513,3
2120,512,3
2121,513,3
2122,514,3
2123,514,3
2124,514,3
2125,514,3
2126,514,3
2127,514,3
2128,513,3
2129,514,3
2130,513,3
2131,513,3
2132,512,3
2133,511,3
2134,511,3
2135,512,3
2136,512,3
2137,511,3
2138,512,3
2139,512,3
2140,512,3
2141,512,3
2142,512,3
2143,512,3
2144,511,3
2145,511,3
2146,511,3
2147,510,3
2148,509,3
2149,508,3
2150,508,3
2151,508,3
2152,508,3
2153,508,3
2154,508,3
2155,508,3
2156,507,3
2157,508,3
2158,507,3
2159,508,3
2160,508,3
2161,508,3
2162,507,3
2163,507,3
2164,507,3
2165,507,3
2166,507,3
2167,507,3
2168,507,3
2169,507,3
2170,507,3
2171,507,3
2172,506,3
2173,505,3
2174,504,3
2175,504,3
2176,503,3
2177,503,3
2178,503,3
2179,504,3
2180,504,3
2181,504,3
2182,503,3
2183,503,3
2184,504,3
2185,503,3
2186,503,3
2187,503,3
2188,503,3
2189,503,3
2190,503,3
2191,503,3
2192,503,3
2193,503,3
2194,502,3
2195,502,3
2196,503,3
2197,503,3
2198,503,3
2199,502,3
2200,502,3
2201,502,3
2202,502,3
2203,502,3
2204,504,3
2205,504,3
2206,505,3
2207,505,3
2208,505,3
2209,505,3
2210,505,3
2211,505,3
2212,504,3
2213,503,3
2214,503,3
2215,502,3
2216,502,3
2217,502,3
2218,502,3
2219,503,3
2220,503,3
2221,503,3
2222,502,3
2223,501,3
2224,501,3
2225,502,3
2226,502,3
2227,503,3
2228,503,3
2229,503,3
2230,504,3
2231,504,3
2232,504,3
2233,504,3
2234,504,3
2235,503,3
2236,503,3
2237,504,3
2238,503,3
2239,503,3
2240,503,3
2241,503,3
2242,504,3
2243,504,3
2244,503,3
2245,503,3
2246,502,3
2247,502,3
2248,502,3
2249,502,3
2250,503,3
2251,502,3
2252,502,3
2253,503,3
2254,503,3
2255,503,3
2256,503,3
2257,503,3
2258,503,3
2259,502,3
2260,502,3
2261,503,3
2262,503,3
2263,504,3
2264,503,3
2265,503,3
2266,503,3
2267,503,3
2268,502,3
2269,503,3
2270,503,3
2271,503,3
2272,503,3
2273,503,3
2274,504,3
2275,505,3
2276,504,3
2277,504,3
2278,504,3
2279,504,3
2280,504,3
2281,505,3
2282,506,3
2283,506,3
2284,506,3
2285,506,3
2286,505,3
2287,504,3
2288,504,3
2289,504,3
2290,504,3
2291,504,3
2292,505,3
2293,506,3
2294,505,3
2295,505,3
2296,505,3
2297,504,3
2298,504,3
2299,505,3
2300,505,3
2301,505,3
2302,505,3
2303,506,3
2304,506,3
2305,506,3
2306,506,3
2307,507,3
2308,507,3
2309,506,3
2310,506,3
2311,506,3
2312,505,3
2313,505,3
2314,505,3
2315,505,3
2316,505,3
2317,504,3
2318,504,3
2319,504,3
2320,505,3
2321,505,3
2322,506,3
2323,507,3
2324,506,3
2325,506,3
2326,506,3
2327,506,3
2328,506,3
2329,507,3
2330,507,3
2331,508,3
2332,508,3
2333,507,3
2334,508,3
2335,508,3
2336,508,3
2337,507,3
2338,508,3
2339,508,3
2340,508,3
2341,508,3
2342,509,3
2343,509,3
2344,509,3
2345,509,3
2346,510,3
2347,512,3
2348,515,3
2349,516,3
2350,517,3
2351,518,3
2352,519,3
2353,519,3
2354,520,3
2355,521,3
2356,522,3
2357,523,3
2358,524,3
2359,525,3
2360,527,3
2361,528,3
2362,529,3
2363,531,3
2364,532,3
2365,532,3
2366,533,3
2367,533,3
2368,534,3
2369,535,3
2370,535,3
2371,535,3
2372,535,3
2373,535,3
2374,535,3
2375,537,3
2376,538,3
2377,538,3
2378,539,3
2379,540,3
2380,541,3
2381,542,3
2382,542,3
2383,543,3
2384,544,3
2385,544,3
2386,543,3
2387,544,3
2388,545,3
2389,545,3
2390,546,3
2391,546,3
2392,545,3
2393,545,3
2394,543,3
2395,541,3
2396,537,3
2397,535,3
2398,534,3
2399,532,3
2400,531,3
2401,530,3
2402,528,3
2403,527,3
2404,526,3
2405,525,3
2406,523,3
2407,521,3
2408,520,3
2409,519,3
2410,517,3
2411,516,3
2412,515,3
2413,513,3
2414,511,3
2415,510,3
2416,509,3
2417,508,3
2418,507,3
2419,506,3
2420,504,3
2421,504,3
2422,503,3
2423,502,3
2424,502,3
2425,503,3
2426,503,3
2427,503,3
2428,503,3
2429,503,3
2430,503,3
2431,503,3
2432,502,3
2433,502,3
2434,502,3
2435,501,3
2436,501,3
2437,501,3
2438,500,3
2439,500,3
2440,500,3
2441,500,3
2442,499,3
2443,499,3
2444,498,3
2445,499,3
2446,500,3
2447,500,3
2448,500,3
2449,499,3
2450,499,3
2451,499,3
2452,499,3
2453,499,3
2454,500,3
2455,500,3
2456,501,3
2457,501,3
2458,501,3
2459,500,3
2460,500,3
2461,500,3
2462,500,3
2463,500,3
2464,500,3
2465,502,3
2466,503,3
2467,503,3
2468,504,3
2469,504,3
2470,504,3
2471,504,3
2472,504,3
2473,504,3
2474,504,3
2475,505,3
2476,505,3
2477,505,3
2478,505,3
2479,505,3
2480,505,3
2481,505,3
2482,505,3
2483,504,3
2484,505,3
2485,505,3
2486,505,3
2487,505,3
2488,506,3
2489,506,3
2490,506,3
2491,507,3
2492,508,3
2493,508,3
2494,508,3
2495,507,3
2496,509,3
2497,509,3
2498,510,3
2499,510,3
2500,510,3
2501,510,3
2502,510,3
2503,509,3
2504,509,3
2505,508,3
2506,507,3
2507,505,3
2508,504,3
2509,504,3
2510,503,3
2511,503,3
2512,502,3
2513,502,3
2514,503,3
2515,504,3
2516,511,3
2517,524,3
2518,532,3
2519,541,3
2520,551,3
2521,560,3
2522,570,3
2523,580,3
2524,592,3
2525,605,3
2526,620,3
2527,636,3
2528,654,3
2529,673,3
2530,692,3
2531,711,3
2532,730,3
2533,748,3
2534,767,3
2535,785,3
2536,803,3
2537,819,3
2538,834,3
2539,845,3
2540,846,3
2541,824,3
2542,804,3
2543,777,3
2544,743,3
2545,702,3
2546,654,3
2547,600,3
2548,541,3
2549,478,3
2550,413,3
2551,349,3
2552,288,3
2553,232,3
2554,180,3
2555,136,3
2556,99,3
2557,67,3
2558,39,3
2559,19,3
2560,3,3
2561,8,3
2562,38,3
2563,63,3
2564,92,3
2565,125,3
2566,161,3
2567,199,3
2568,236,3
2569,273,3
2570,307,3
2571,338,3
2572,367,3
2573,393,3
2574,415,3
2575,435,3
2576,453,3
2577,468,3
2578,481,3
2579,493,3
2580,504,3
2581,513,3
2582,520,3
2583,525,3
2584,533,3
2585,535,3
2586,537,3
2587,539,3
2588,540,3
2589,543,3
2590,545,3
2591,546,3
2592,547,3
2593,547,3
2594,547,3
2595,547,3
2596,546,3
2597,545,3
2598,545,3
2599,544,3
2600,544,3
2601,545,3
2602,547,3
2603,549,3
2604,552,3
2605,556,3
2606,558,3
2607,564,3
2608,568,3
2609,569,3
2610,569,3
2611,569,3
2612,568,3
2613,567,3
2614,566,3
2615,565,3
2616,564,3
2617,564,3
2618,563,3
2619,563,3
2620,564,3
2621,565,3
2622,567,3
2623,568,3
2624,569,3
2625,571,3
2626,573,3
2627,574,3
2628,575,3
2629,577,3
2630,577,3
2631,576,3
2632,574,3
2633,572,3
2634,571,3
2635,572,3
2636,572,3
2637,574,3
2638,575,3
2639,577,3
2640,579,3
2641,580,3
2642,581,3
2643,582,3
2644,584,3
2645,585,3
2646,586,3
2647,587,3
2648,587,3
2649,588,3
2650,588,3
2651,588,3
2652,589,3
2653,589,3
2654,590,3
2655,590,3
2656,591,3
2657,592,3
2658,593,3
2659,593,3
2660,593,3
2661,594,3
2662,595,3
2663,595,3
2664,596,3
2665,597,3
2666,597,3
2667,598,3
2668,599,3
2669,599,3
2670,600,3
2671,602,3
2672,604,3
2673,605,3
2674,606,3
2675,607,3
2676,607,3
2677,608,3
2678,610,3
2679,612,3
2680,615,3
2681,617,3
2682,618,3
2683,619,3
2684,620,3
2685,621,3
2686,622,3
2687,622,3
2688,624,3
2689,626,3
2690,627,3
2691,628,3
2692,630,3
2693,631,3
2694,633,3
2695,635,3
2696,636,3
2697,638,3
2698,639,3
2699,641,3
2700,643,3
2701,644,3
2702,645,3
2703,645,3
2704,650,3
2705,652,3
2706,654,3
2707,656,3
2708,658,3
2709,660,3
2710,662,3
2711,663,3
2712,665,3
2713,667,3
2714,669,3
2715,670,3
2716,672,3
2717,674,3
2718,675,3
2719,676,3
2720,677,3
2721,678,3
2722,679,3
2723,680,3
2724,680,3
2725,681,3
2726,682,3
2727,684,3
2728,685,3
2729,686,3
2730,686,3
2731,687,3
2732,688,3
2733,688,3
2734,689,3
2735,690,3
2736,691,3
2737,691,3
2738,690,3
2739,690,3
2740,690,3
2741,689,3
2742,689,3
2743,690,3
2744,691,3
2745,690,3
2746,689,3
2747,689,3
2748,689,3
2749,689,3
2750,688,3
2751,688,3
2752,688,3
2753,687,3
2754,687,3
2755,686,3
2756,684,3
2757,683,3
2758,682,3
2759,681,3
2760,680,3
2761,680,3
2762,678,3
2763,676,3
2764,674,3
2765,672,3
2766,669,3
2767,667,3
2768,665,3
2769,663,3
2770,661,3
2771,658,3
2772,655,3
2773,653,3
2774,650,3
2775,647,3
2776,640,3
2777,634,3
2778,632,3
2779,629,3
2780,626,3
2781,622,3
2782,618,3
2783,614,3
2784,611,3
2785,607,3
2786,604,3
2787,601,3
2788,598,3
2789,595,3
2790,592,3
2791,589,3
2792,586,3
2793,582,3
2794,580,3
2795,577,3
2796,574,3
2797,571,3
2798,569,3
2799,566,3
2800,562,3
2801,557,3
2802,554,3
2803,552,3
2804,549,3
2805,546,3
2806,543,3
2807,541,3
2808,540,3
2809,538,3
2810,537,3
2811,535,3
2812,533,3
2813,531,3
2814,529,3
2815,528,3
2816,528,3
2817,527,3
2818,525,3
2819,524,3
2820,522,3
2821,521,3
2822,521,3
2823,520,3
2824,517,3
2825,516,3
2826,514,3
2827,514,3
2828,514,3
2829,513,3
2830,512,3
2831,511,3
2832,511,3
2833,510,3
2834,510,3
2835,509,3
2836,509,3
2837,509,3
2838,509,3
2839,509,3
2840,509,3
2841,510,3
2842,510,3
2843,510,3
2844,510,3
2845,510,3
2846,510,3
2847,510,3
2848,509,3
2849,508,3
2850,509,3
2851,509,3
2852,510,3
2853,510,3
2854,510,3
2855,510,3
2856,510,3
2857,510,3
2858,511,3
2859,511,3
2860,512,3
2861,512,3
2862,512,3
2863,512,3
2864,513,3
2865,513,3
2866,512,3
2867,512,3
2868,513,3
2869,513,3
2870,514,3
2871,514,3
2872,514,3
2873,514,3
2874,513,3
2875,513,3
2876,513,3
2877,514,3
2878,514,3
2879,514,3
2880,515,3
2881,515,3
2882,515,3
2883,515,3
2884,516,3
2885,515,3
2886,515,3
2887,515,3
2888,515,3
2889,516,3
2890,517,3
2891,517,3
2892,517,3
2893,517,3
2894,517,3
2895,516,3
2896,517,3
2897,517,3
2898,517,3
2899,518,3
2900,519,3
2901,519,3
2902,519,3
2903,519,3
2904,518,3
2905,518,3
2906,518,3
2907,519,3
2908,519,3
2909,519,3
2910,520,3
2911,519,3
2912,519,3
2913,519,3
2914,520,3
2915,519,3
2916,519,3
2917,519,3
2918,519,3
2919,519,3
2920,519,3
2921,519,3
2922,520,3
2923,521,3
2924,521,3
2925,521,3
2926,521,3
2927,521,3
2928,520,3
2929,520,3
2930,520,3
2931,519,3
2932,519,3
2933,518,3
2934,516,3
2935,516,3
2936,516,3
2937,515,3
2938,515,3
2939,515,3
2940,515,3
2941,515,3
2942,514,3
2943,514,3
2944,514,3
2945,515,3
2946,515,3
2947,515,3
2948,515,3
2949,516,3
2950,516,3
2951,516,3
2952,516,3
2953,515,3
2954,516,3
2955,515,3
2956,515,3
2957,515,3
2958,513,3
2959,513,3
2960,512,3
2961,512,3
2962,511,3
2963,511,3
2964,510,3
2965,510,3
2966,510,3
2967,510,3
2968,510,3
2969,510,3
2970,510,3
2971,510,3
2972,510,3
2973,510,3
2974,510,3
2975,510,3
2976,509,3
2977,508,3
2978,508,3
2979,508,3
2980,509,3
2981,510,3
2982,509,3
2983,509,3
2984,508,3
2985,508,3
2986,508,3
2987,508,3
2988,508,3
2989,509,3
2990,509,3
2991,510,3
2992,511,3
2993,511,3
2994,512,3
2995,512,3
2996,512,3
2997,511,3
2998,511,3
2999,511,3
3000,511,3
3001,511,3
3002,511,3
3003,511,3
3004,512,3
3005,512,3
3006,512,3
3007,510,3
3008,510,3
3009,510,3
3010,510,3
3011,511,3
3012,511,3
3013,511,3
3014,510,3
3015,509,3
3016,508,3
3017,508,3
3018,508,3
3019,507,3
3020,507,3
3021,507,3
3022,508,3
3023,508,3
3024,507,3
3025,507,3
3026,506,3
3027,506,3
3028,506,3
3029,506,3
3030,505,3
3031,506,3
3032,508,3
3033,508,3
3034,508,3
3035,508,3
3036,509,3
3037,510,3
3038,510,3
3039,510,3
3040,510,3
3041,510,3
3042,510,3
3043,511,3
3044,510,3
3045,510,3
3046,511,3
3047,511,3
3048,512,3
3049,512,3
3050,512,3
3051,511,3
3052,511,3
3053,511,3
3054,511,3
3055,511,3
3056,510,3
3057,510,3
3058,511,3
3059,511,3
3060,512,3
3061,512,3
3062,512,3
3063,512,3
3064,512,3
3065,512,3
3066,513,3
3067,513,3
3068,513,3
3069,514,3
3070,514,3
3071,514,3
3072,514,3
3073,514,3
3074,514,3
3075,515,3
3076,514,3
3077,514,3
3078,513,3
3079,513,3
3080,514,3
3081,514,3
3082,514,3
3083,513,3
3084,512,3
3085,511,3
3086,512,3
3087,512,3
3088,512,3
3089,512,3
3090,513,3
3091,513,3
3092,513,3
3093,513,3
3094,514,3
3095,514,3
3096,514,3
3097,513,3
3098,513,3
3099,513,3
3100,513,3
3101,514,3
3102,515,3
3103,516,3
3104,516,3
3105,517,3
3106,516,3
3107,517,3
3108,516,3
3109,516,3
3110,516,3
3111,516,3
3112,516,3
3113,515,3
3114,516,3
3115,516,3
3116,517,3
3117,517,3
3118,516,3
3119,516,3
3120,515,3
3121,515,3
3122,514,3
3123,514,3
3124,513,3
3125,516,3
3126,517,3
3127,518,3
3128,519,3
3129,520,3
3130,521,3
3131,522,3
3132,523,3
3133,525,3
3134,527,3
3135,528,3
3136,530,3
3137,531,3
3138,532,3
3139,533,3
3140,534,3
3141,535,3
3142,536,3
3143,538,3
3144,540,3
3145,541,3
3146,542,3
3147,543,3
3148,543,3
3149,544,3
3150,544,3
3151,545,3
3152,546,3
3153,547,3
3154,547,3
3155,548,3
3156,548,3
3157,548,3
3158,548,3
3159,549,3
3160,550,3
3161,552,3
3162,554,3
3163,554,3
3164,555,3
3165,556,3
3166,556,3
3167,556,3
3168,556,3
3169,557,3
3170,557,3
3171,557,3
3172,557,3
3173,557,3
3174,555,3
3175,555,3
3176,552,3
3177,551,3
3178,550,3
3179,548,3
3180,547,3
3181,546,3
3182,544,3
3183,544,3
3184,543,3
3185,543,3
3186,542,3
3187,542,3
3188,541,3
3189,540,3
3190,538,3
3191,536,3
3192,534,3
3193,532,3
3194,530,3
3195,529,3
3196,528,3
3197,527,3
3198,525,3
3199,524,3
3200,522,3
3201,520,3
3202,519,3
3203,518,3
3204,516,3
3205,515,3
3206,514,3
3207,514,3
3208,514,3
3209,514,3
3210,515,3
3211,515,3
3212,514,3
3213,514,3
3214,513,3
3215,512,3
3216,511,3
3217,511,3
3218,511,3
3219,510,3
3220,510,3
3221,510,3
3222,509,3
3223,508,3
3224,509,3
3225,510,3
3226,510,3
3227,511,3
3228,511,3
3229,510,3
3230,509,3
3231,509,3
3232,508,3
3233,508,3
3234,509,3
3235,510,3
3236,510,3
3237,510,3
3238,509,3
3239,509,3
3240,509,3
3241,508,3
3242,509,3
3243,510,3
3244,510,3
3245,510,3
3246,511,3
3247,511,3
3248,510,3
3249,510,3
3250,511,3
3251,512,3
3252,513,3
3253,514,3
3254,514,3
3255,514,3
3256,514,3
3257,514,3
3258,514,3
3259,513,3
3260,512,3
3261,512,3
3262,512,3
3263,512,3
3264,513,3
3265,513,3
3266,514,3
3267,514,3
3268,514,3
3269,514,3
3270,514,3
3271,513,3
3272,513,3
3273,514,3
3274,515,3
3275,515,3
3276,516,3
3277,516,3
3278,516,3
3279,516,3
3280,515,3
3281,515,3
3282,515,3
3283,515,3
3284,516,3
3285,516,3
3286,516,3
3287,515,3
3288,514,3
3289,514,3
3290,513,3
3291,513,3
3292,512,3
3293,512,3
3294,512,3
3295,514,3
3296,520,3
3297,526,3
3298,531,3
3299,538,3
3300,545,3
3301,554,3
3302,562,3
3303,573,3
3304,583,3
3305,594,3
3306,608,3
3307,622,3
3308,639,3
3309,657,3
3310,676,3
3311,695,3
3312,714,3
3313,734,3
3314,752,3
3315,772,3
3316,792,3
3317,811,3
3318,841,3
3319,859,3
3320,859,3
3321,851,3
3322,838,3
3323,817,3
3324,790,3
3325,758,3
3326,717,3
3327,669,3
3328,612,3
3329,551,3
3330,485,3
3331,417,3
3332,352,3
3333,289,3
3334,231,3
3335,178,3
3336,132,3
3337,92,3
3338,58,3
3339,10,3
3340,0,3
3341,0,3
3342,0,3
3343,11,3
3344,31,3
3345,58,3
3346,91,3
3347,128,3
3348,168,3
3349,210,3
3350,251,3
3351,290,3
3352,327,3
3353,360,3
3354,391,3
3355,418,3
3356,441,3
3357,461,3
3358,479,3
3359,494,3
3360,508,3
3361,518,3
3362,527,3
3363,538,3
3364,541,3
3365,542,3
3366,544,3
3367,544,3
3368,547,3
3369,547,3
3370,549,3
3371,550,3
3372,551,3
3373,552,3
3374,554,3
3375,555,3
3376,556,3
3377,557,3
3378,558,3
3379,558,3
3380,557,3
3381,557,3
3382,557,3
3383,557,3
3384,557,3
3385,557,3
3386,558,3
3387,562,3
3388,567,3
3389,570,3
3390,572,3
3391,574,3
3392,575,3
3393,575,3
3394,575,3
3395,575,3
3396,573,3
3397,572,3
3398,571,3
3399,570,3
3400,569,3
3401,569,3
3402,570,3
3403,571,3
3404,573,3
3405,575,3
3406,578,3
3407,580,3
3408,582,3
3409,582,3
3410,583,3
3411,584,3
3412,583,3
3413,583,3
3414,583,3
3415,582,3
3416,582,3
3417,582,3
3418,582,3
3419,582,3
3420,583,3
3421,584,3
3422,586,3
3423,588,3
3424,589,3
3425,590,3
3426,591,3
3427,592,3
3428,594,3
3429,594,3
3430,594,3
3431,594,3
3432,594,3
3433,595,3
3434,595,3
3435,597,3
3436,597,3
3437,598,3
3438,599,3
3439,600,3
3440,601,3
3441,602,3
3442,603,3
3443,604,3
3444,605,3
3445,606,3
3446,607,3
3447,608,3
3448,610,3
3449,610,3
3450,611,3
3451,611,3
3452,612,3
3453,612,3
3454,613,3
3455,616,3
3456,617,3
3457,619,3
3458,621,3
3459,623,3
3460,625,3
3461,626,3
3462,627,3
3463,627,3
3464,628,3
3465,629,3
3466,630,3
3467,632,3
3468,633,3
3469,634,3
3470,636,3
3471,638,3
3472,639,3
3473,640,3
3474,641,3
3475,642,3
3476,643,3
3477,644,3
3478,645,3
3479,647,3
3480,649,3
3481,650,3
3482,652,3
3483,656,3
3484,660,3
3485,662,3
3486,664,3
3487,666,3
3488,668,3
3489,670,3
3490,672,3
3491,673,3
3492,675,3
3493,676,3
3494,677,3
3495,677,3
3496,679,3
3497,680,3
3498,682,3
3499,683,3
3500,684,3
3501,684,3
3502,685,3
3503,686,3
3504,687,3
3505,688,3
3506,689,3
3507,690,3
3508,692,3
3509,693,3
3510,693,3
3511,694,3
3512,696,3
3513,696,3
3514,697,3
3515,698,3
3516,698,3
3517,698,3
3518,698,3
3519,697,3
3520,697,3
3521,697,3
3522,696,3
3523,697,3
3524,697,3
3525,697,3
3526,697,3
3527,697,3
3528,697,3
3529,697,3
3530,696,3
3531,695,3
3532,694,3
3533,694,3
3534,693,3
3535,692,3
3536,692,3
3537,690,3
3538,689,3
3539,687,3
3540,686,3
3541,684,3
3542,682,3
3543,680,3
3544,678,3
3545,675,3
3546,673,3
3547,671,3
3548,669,3
3549,667,3
3550,665,3
3551,662,3
3552,659,3
3553,656,3
3554,653,3
3555,649,3
3556,644,3
3557,641,3
3558,638,3
3559,634,3
3560,631,3
3561,628,3
3562,626,3
3563,622,3
3564,618,3
3565,615,3
3566,611,3
3567,608,3
3568,604,3
3569,601,3
3570,598,3
3571,595,3
3572,592,3
3573,589,3
3574,587,3
3575,583,3
3576,580,3
3577,577,3
3578,574,3
3579,568,3
3580,563,3
3581,561,3
3582,558,3
3583,556,3
3584,554,3
3585,552,3
3586,549,3
3587,546,3
3588,544,3
3589,543,3
3590,541,3
3591,540,3
3592,539,3
3593,537,3
3594,535,3
3595,534,3
3596,533,3
3597,532,3
3598,530,3
3599,529,3
3600,528,3
3601,527,3
3602,525,3
3603,523,3
3604,521,3
3605,521,3
3606,521,3
3607,520,3
3608,519,3
3609,518,3
3610,516,3
3611,515,3
3612,515,3
3613,515,3
3614,515,3
3615,514,3
3616,514,3
3617,513,3
3618,513,3
3619,512,3
3620,511,3
3621,511,3
3622,511,3
3623,510,3
3624,510,3
3625,510,3
3626,509,3
3627,508,3
3628,509,3
3629,508,3
3630,508,3
3631,508,3
3632,508,3
3633,509,3
3634,510,3
3635,511,3
3636,512,3
3637,512,3
3638,513,3
3639,513,3
3640,513,3
3641,514,3
3642,515,3
3643,516,3
3644,516,3
3645,517,3
3646,518,3
3647,518,3
3648,518,3
3649,518,3
3650,519,3
3651,519,3
3652,518,3
3653,517,3
3654,518,3
3655,518,3
3656,518,3
3657,518,3
3658,518,3
3659,518,3
3660,518,3
3661,519,3
3662,519,3
3663,519,3
3664,519,3
3665,520,3
3666,520,3
3667,519,3
3668,519,3
3669,519,3
3670,519,3
3671,519,3
3672,519,3
3673,519,3
3674,519,3
3675,520,3
3676,520,3
3677,519,3
3678,518,3
3679,517,3
3680,517,3
3681,517,3
3682,517,3
3683,517,3
3684,518,3
3685,519,3
3686,519,3
3687,519,3
3688,519,3
3689,519,3
3690,518,3
3691,518,3
3692,518,3
3693,518,3
3694,519,3
3695,519,3
3696,519,3
3697,520,3
3698,519,3
3699,519,3
3700,520,3
3701,520,3
3702,519,3
3703,518,3
3704,517,3
3705,516,3
3706,516,3
3707,516,3
3708,516,3
3709,517,3
3710,517,3
3711,517,3
3712,517,3
3713,517,3
3714,517,3
3715,517,3
3716,517,3
3717,517,3
3718,517,3
3719,517,3
3720,516,3
3721,515,3
3722,515,3
3723,514,3
3724,513,3
3725,512,3
3726,511,3
3727,510,3
3728,511,3
3729,510,3
3730,510,3
3731,510,3
3732,510,3
3733,510,3
3734,510,3
3735,510,3
3736,510,3
3737,510,3
3738,511,3
3739,511,3
3740,511,3
3741,510,3
3742,510,3
3743,510,3
3744,510,3
3745,510,3
3746,510,3
3747,510,3
3748,509,3
3749,508,3
3750,508,3
3751,508,3
3752,508,3
3753,508,3
3754,508,3
3755,508,3
3756,508,3
3757,508,3
3758,508,3
3759,508,3
3760,507,3
3761,507,3
3762,507,3
3763,507,3
3764,507,3
3765,507,3
3766,507,3
3767,507,3
3768,506,3
3769,505,3
3770,505,3
3771,505,3
3772,505,3
3773,505,3
3774,505,3
3775,506,3
3776,506,3
3777,506,3
3778,506,3
3779,506,3
3780,505,3
3781,505,3
3782,505,3
3783,506,3
3784,506,3
3785,506,3
3786,506,3
3787,506,3
3788,506,3
3789,505,3
3790,505,3
3791,505,3
3792,505,3
3793,506,3
3794,506,3
3795,506,3
3796,505,3
3797,505,3
3798,505,3
3799,505,3
3800,506,3
3801,506,3
3802,506,3
3803,506,3
3804,506,3
3805,506,3
3806,506,3
3807,506,3
3808,505,3
3809,505,3
3810,505,3
3811,505,3
3812,505,3
3813,505,3
3814,505,3
3815,505,3
3816,505,3
3817,505,3
3818,506,3
3819,506,3
3820,507,3
3821,507,3
3822,507,3
3823,507,3
3824,507,3
3825,507,3
3826,507,3
3827,507,3
3828,507,3
3829,506,3
3830,506,3
3831,506,3
3832,507,3
3833,507,3
3834,507,3
3835,506,3
3836,506,3
3837,506,3
3838,507,3
3839,507,3
3840,507,3
3841,506,3
3842,506,3
3843,507,3
3844,509,3
3845,508,3
3846,508,3
3847,507,3
3848,507,3
3849,507,3
3850,507,3
3851,507,3
3852,507,3
3853,507,3
3854,508,3
3855,508,3
3856,509,3
3857,510,3
3858,510,3
3859,509,3
3860,509,3
3861,509,3
3862,510,3
3863,510,3
3864,510,3
3865,510,3
3866,511,3
3867,512,3
3868,512,3
3869,511,3
3870,510,3
3871,510,3
3872,510,3
3873,510,3
3874,510,3
3875,510,3
3876,509,3
3877,509,3
3878,509,3
3879,510,3
3880,511,3
3881,510,3
3882,510,3
3883,509,3
3884,509,3
3885,509,3
3886,509,3
3887,509,3
3888,509,3
3889,510,3
3890,510,3
3891,510,3
3892,510,3
3893,511,3
3894,511,3
3895,511,3
3896,510,3
3897,510,3
3898,511,3
3899,512,3
3900,512,3
3901,512,3
3902,513,3
3903,513,3
3904,514,3
3905,515,3
3906,515,3
3907,515,3
3908,514,3
3909,515,3
3910,514,3
3911,514,3
3912,514,3
3913,514,3
3914,514,3
3915,515,3
3916,515,3
3917,516,3
3918,516,3
3919,516,3
3920,516,3
3921,516,3
3922,515,3
3923,515,3
3924,515,3
3925,515,3
3926,515,3
3927,516,3
3928,515,3
3929,515,3
3930,516,3
3931,518,3
3932,519,3
3933,520,3
3934,521,3
3935,521,3
3936,522,3
3937,523,3
3938,524,3
3939,526,3
3940,529,3
3941,529,3
3942,531,3
3943,532,3
3944,534,3
3945,536,3
3946,538,3
3947,539,3
3948,541,3
3949,542,3
3950,543,3
3951,544,3
3952,544,3
3953,545,3
3954,545,3
3955,545,3
3956,546,3
3957,546,3
3958,547,3
3959,547,3
3960,548,3
3961,548,3
3962,549,3
3963,549,3
3964,550,3
3965,550,3
3966,551,3
3967,551,3
3968,552,3
3969,552,3
3970,552,3
3971,553,3
3972,553,3
3973,554,3
3974,554,3
3975,555,3
3976,555,3
3977,553,3
3978,552,3
3979,550,3
3980,549,3
3981,548,3
3982,547,3
3983,546,3
3984,545,3
3985,543,3
3986,542,3
3987,541,3
3988,539,3
3989,538,3
3990,536,3
3991,534,3
3992,532,3
3993,530,3
3994,528,3
3995,526,3
3996,524,3
3997,523,3
3998,522,3
3999,521,3
4000,521,3
4001,520,3
4002,520,3
4003,518,3
4004,517,3
4005,515,3
4006,514,3
4007,514,3
4008,513,3
4009,512,3
4010,511,3
4011,511,3
4012,511,3
4013,512,3
4014,511,3
4015,510,3
4016,510,3
4017,509,3
4018,508,3
4019,508,3
4020,507,3
4021,507,3
4022,507,3
4023,506,3
4024,505,3
4025,505,3
4026,505,3
4027,505,3
4028,506,3
4029,506,3
4030,506,3
4031,506,3
4032,506,3
4033,506,3
4034,507,3
4035,509,3
4036,508,3
4037,509,3
4038,508,3
4039,508,3
4040,508,3
4041,508,3
4042,508,3
4043,507,3
4044,507,3
4045,507,3
4046,507,3
4047,506,3
4048,505,3
4049,504,3
4050,504,3
4051,504,3
4052,505,3
4053,506,3
4054,506,3
4055,506,3
4056,506,3
4057,507,3
4058,507,3
4059,508,3
4060,508,3
4061,508,3
4062,508,3
4063,508,3
4064,508,3
4065,508,3
4066,509,3
4067,510,3
4068,511,3
4069,512,3
4070,512,3
4071,512,3
4072,512,3
4073,512,3
4074,513,3
4075,513,3
4076,512,3
4077,513,3
4078,513,3
4079,513,3
4080,513,3
4081,513,3
4082,513,3
4083,512,3
4084,512,3
4085,513,3
4086,514,3
4087,515,3
4088,514,3
4089,513,3
4090,511,3
4091,510,3
4092,508,3
4093,506,3
4094,506,3
4095,506,3
4096,507,3
4097,508,3
4098,510,3
4099,513,3
4100,516,3
4101,522,3
4102,527,3
4103,533,3
4104,540,3
4105,549,3
4106,558,3
4107,580,3
4108,609,3
4109,625,3
4110,642,3
4111,660,3
4112,677,3
4113,695,3
4114,715,3
4115,734,3
4116,756,3
4117,779,3
4118,799,3
4119,816,3
4120,831,3
4121,842,3
4122,849,3
4123,850,3
4124,843,3
4125,830,3
4126,811,3
4127,785,3
4128,753,3
4129,714,3
4130,665,3
4131,544,3
4132,408,3
4133,341,3
4134,278,3
4135,219,3
4136,166,3
4137,119,3
4138,78,3
4139,42,3
4140,13,3
4141,0,3
4142,0,3
4143,0,3
4144,0,3
4145,0,3
4146,20,3
4147,49,3
4148,84,3
4149,123,3
4150,166,3
4151,211,3
4152,254,3
4153,295,3
4154,333,3
4155,368,3
4156,398,3
4157,425,3
4158,447,3
4159,467,3
4160,484,3
4161,499,3
4162,511,3
4163,520,3
4164,527,3
4165,536,3
4166,537,3
4167,538,3
4168,538,3
4169,538,3
4170,538,3
4171,539,3
4172,541,3
4173,543,3
4174,546,3
4175,548,3
4176,551,3
4177,552,3
4178,553,3
4179,554,3
4180,555,3
4181,554,3
4182,553,3
4183,552,3
4184,551,3
4185,551,3
4186,552,3
4187,553,3
4188,556,3
4189,562,3
4190,565,3
4191,569,3
4192,570,3
4193,571,3
4194,571,3
4195,571,3
4196,570,3
4197,569,3
4198,568,3
4199,567,3
4200,566,3
4201,566,3
4202,566,3
4203,566,3
4204,567,3
4205,568,3
4206,569,3
4207,571,3
4208,573,3
4209,575,3
4210,577,3
4211,578,3
4212,579,3
4213,580,3
4214,579,3
4215,579,3
4216,578,3
4217,578,3
4218,577,3
4219,577,3
4220,577,3
4221,579,3
4222,581,3
4223,582,3
4224,584,3
4225,585,3
4226,586,3
4227,587,3
4228,587,3
4229,587,3
4230,587,3
4231,587,3
4232,587,3
4233,587,3
4234,588,3
4235,588,3
4236,589,3
4237,590,3
4238,591,3
4239,592,3
4240,593,3
4241,594,3
4242,595,3
4243,596,3
4244,597,3
4245,599,3
4246,601,3
4247,602,3
4248,603,3
4249,604,3
4250,604,3
4251,604,3
4252,606,3
4253,607,3
4254,607,3
4255,608,3
4256,608,3
4257,608,3
4258,614,3
4259,615,3
4260,616,3
4261,617,3
4262,618,3
4263,618,3
4264,619,3
4265,622,3
4266,624,3
4267,626,3
4268,627,3
4269,627,3
4270,628,3
4271,629,3
4272,631,3
4273,633,3
4274,635,3
4275,636,3
4276,638,3
4277,639,3
4278,640,3
4279,641,3
4280,643,3
4281,644,3
4282,646,3
4283,647,3
4284,649,3
4285,651,3
4286,654,3
4287,655,3
4288,657,3
4289,658,3
4290,660,3
4291,662,3
4292,663,3
4293,665,3
4294,666,3
4295,668,3
4296,669,3
4297,669,3
4298,671,3
4299,672,3
4300,674,3
4301,675,3
4302,676,3
4303,677,3
4304,677,3
4305,677,3
4306,678,3
4307,678,3
4308,679,3
4309,681,3
4310,682,3
4311,681,3
4312,681,3
4313,681,3
4314,682,3
4315,682,3
4316,682,3
4317,683,3
4318,683,3
4319,684,3
4320,685,3
4321,685,3
4322,686,3
4323,685,3
4324,685,3
4325,684,3
4326,684,3
4327,685,3
4328,684,3
4329,684,3
4330,683,3
4331,682,3
4332,682,3
4333,680,3
4334,679,3
4335,679,3
4336,679,3
4337,678,3
4338,677,3
4339,676,3
4340,675,3
4341,674,3
4342,673,3
4343,672,3
4344,670,3
4345,669,3
4346,668,3
4347,667,3
4348,665,3
4349,662,3
4350,661,3
4351,659,3
4352,657,3
4353,655,3
4354,652,3
4355,649,3
4356,647,3
4357,642,3
4358,637,3
4359,634,3
4360,631,3
4361,628,3
4362,624,3
4363,621,3
4364,618,3
4365,615,3
4366,612,3
4367,609,3
4368,606,3
4369,603,3
4370,599,3
4371,596,3
4372,593,3
4373,590,3
4374,588,3
4375,585,3
4376,582,3
4377,579,3
4378,577,3
4379,574,3
4380,571,3
4381,566,3
4382,563,3
4383,560,3
4384,557,3
4385,554,3
4386,552,3
4387,549,3
4388,547,3
4389,545,3
4390,544,3
4391,542,3
4392,540,3
4393,538,3
4394,536,3
4395,534,3
4396,533,3
4397,532,3
4398,531,3
4399,529,3
4400,528,3
4401,526,3
4402,525,3
4403,524,3
4404,523,3
4405,522,3
4406,520,3
4407,518,3
4408,518,3
4409,517,3
4410,515,3
4411,514,3
4412,513,3
4413,512,3
4414,512,3
4415,511,3
4416,511,3
4417,512,3
4418,511,3
4419,511,3
4420,511,3
4421,511,3
4422,511,3
4423,512,3
4424,511,3
4425,511,3
4426,511,3
4427,511,3
4428,512,3
4429,511,3
4430,511,3
4431,511,3
4432,512,3
4433,512,3
4434,513,3
4435,512,3
4436,513,3
4437,513,3
4438,513,3
4439,512,3
4440,513,3
4441,513,3
4442,514,3
4443,514,3
4444,515,3
4445,516,3
4446,516,3
4447,516,3
4448,515,3
4449,515,3
4450,515,3
4451,513,3
4452,513,3
4453,513,3
4454,514,3
4455,514,3
4456,515,3
4457,515,3
4458,515,3
4459,515,3
4460,515,3
4461,514,3
4462,515,3
4463,515,3
4464,516,3
4465,517,3
4466,517,3
4467,517,3
4468,518,3
4469,519,3
4470,519,3
4471,519,3
4472,518,3
4473,517,3
4474,517,3
4475,517,3
4476,516,3
4477,517,3
4478,517,3
4479,517,3
4480,517,3
4481,517,3
4482,517,3
4483,517,3
4484,517,3
4485,518,3
4486,518,3
4487,519,3
4488,519,3
4489,519,3
4490,520,3
4491,520,3
4492,519,3
4493,519,3
4494,519,3
4495,520,3
4496,519,3
4497,520,3
4498,519,3
4499,519,3
4500,518,3
4501,516,3
4502,515,3
4503,514,3
4504,515,3
4505,516,3
4506,516,3
4507,516,3
4508,516,3
4509,516,3
4510,516,3
4511,516,3
4512,515,3
4513,515,3
4514,515,3
4515,516,3
4516,516,3
4517,516,3
4518,516,3
4519,516,3
4520,515,3
4521,515,3
4522,515,3
4523,515,3
4524,515,3
4525,513,3
4526,513,3
4527,512,3
4528,511,3
4529,511,3
4530,512,3
4531,512,3
4532,512,3
4533,512,3
4534,512,3
4535,511,3
4536,511,3
4537,512,3
4538,512,3
4539,512,3
4540,513,3
4541,514,3
4542,514,3
4543,513,3
4544,512,3
4545,513,3
4546,513,3
4547,513,3
4548,512,3
4549,511,3
4550,511,3
4551,510,3
4552,511,3
4553,511,3
4554,510,3
4555,510,3
4556,510,3
4557,509,3
4558,509,3
4559,509,3
4560,510,3
4561,510,3
4562,511,3
4563,511,3
4564,510,3
4565,509,3
4566,509,3
4567,509,3
4568,509,3
4569,509,3
4570,509,3
4571,508,3
4572,507,3
4573,507,3
4574,507,3
4575,507,3
4576,507,3
4577,507,3
4578,506,3
4579,506,3
4580,505,3
4581,506,3
4582,507,3
4583,507,3
4584,507,3
4585,507,3
4586,507,3
4587,506,3
4588,506,3
4589,506,3
4590,506,3
4591,506,3
4592,506,3
4593,507,3
4594,506,3
4595,507,3
4596,506,3
4597,506,3
4598,507,3
4599,507,3
4600,508,3
4601,508,3
4602,507,3
4603,506,3
4604,507,3
4605,507,3
4606,508,3
4607,508,3
4608,507,3
4609,506,3
4610,506,3
4611,505,3
4612,505,3
4613,505,3
4614,505,3
4615,505,3
4616,506,3
4617,506,3
4618,506,3
4619,506,3
4620,506,3
4621,505,3
4622,505,3
4623,505,3
4624,506,3
4625,507,3
4626,507,3
4627,507,3
4628,508,3
4629,508,3
4630,507,3
4631,507,3
4632,507,3
4633,506,3
4634,505,3
4635,505,3
4636,505,3
4637,506,3
4638,506,3
4639,506,3
4640,505,3
4641,505,3
4642,506,3
4643,507,3
4644,507,3
4645,507,3
4646,506,3
4647,505,3
4648,505,3
4649,506,3
4650,508,3
4651,508,3
4652,508,3
4653,508,3
4654,508,3
4655,508,3
4656,508,3
4657,509,3
4658,508,3
4659,509,3
4660,510,3
4661,510,3
4662,511,3
4663,511,3
4664,511,3
4665,511,3
4666,511,3
4667,512,3
4668,512,3
4669,511,3
4670,511,3
4671,510,3
4672,510,3
4673,511,3
4674,511,3
4675,511,3
4676,511,3
4677,511,3
4678,511,3
4679,511,3
4680,509,3
4681,509,3
4682,509,3
4683,509,3
4684,509,3
4685,509,3
4686,509,3
4687,510,3
4688,510,3
4689,510,3
4690,509,3
4691,509,3
4692,509,3
4693,510,3
4694,510,3
4695,509,3
4696,510,3
4697,510,3
4698,513,3
4699,513,3
4700,512,3
4701,512,3
4702,511,3
4703,511,3
4704,511,3
4705,512,3
4706,512,3
4707,512,3
4708,513,3
4709,512,3
4710,512,3
4711,511,3
4712,511,3
4713,511,3
4714,512,3
4715,512,3
4716,511,3
4717,512,3
4718,511,3
4719,511,3
4720,511,3
4721,512,3
4722,512,3
4723,512,3
4724,512,3
4725,513,3
4726,513,3
4727,513,3
4728,514,3
4729,514,3
4730,514,3
4731,515,3
4732,516,3
4733,517,3
4734,518,3
4735,519,3
4736,520,3
4737,521,3
4738,522,3
4739,523,3
4740,525,3
4741,526,3
4742,528,3
4743,529,3
4744,531,3
4745,532,3
4746,534,3
4747,536,3
4748,537,3
4749,538,3
4750,541,3
4751,543,3
4752,545,3
4753,545,3
4754,546,3
4755,546,3
4756,545,3
4757,545,3
4758,545,3
4759,545,3
4760,546,3
4761,547,3
4762,549,3
4763,549,3
4764,550,3
4765,550,3
4766,550,3
4767,551,3
4768,551,3
4769,551,3
4770,552,3
4771,552,3
4772,553,3
4773,554,3
4774,553,3
4775,552,3
4776,550,3
4777,550,3
4778,548,3
4779,547,3
4780,547,3
4781,546,3
4782,545,3
4783,543,3
4784,542,3
4785,540,3
4786,539,3
4787,538,3
4788,537,3
4789,536,3
4790,535,3
4791,534,3
4792,533,3
4793,531,3
4794,529,3
4795,527,3
4796,526,3
4797,524,3
4798,522,3
4799,520,3
4800,518,3
4801,516,3
4802,515,3
4803,514,3
4804,512,3
4805,512,3
4806,511,3
4807,510,3
4808,510,3
4809,510,3
4810,509,3
4811,508,3
4812,507,3
4813,508,3
4814,507,3
4815,507,3
4816,508,3
4817,508,3
4818,508,3
4819,508,3
4820,508,3
4821,507,3
4822,504,3
4823,503,3
4824,501,3
4825,502,3
4826,503,3
4827,503,3
4828,503,3
4829,503,3
4830,503,3
4831,503,3
4832,502,3
4833,502,3
4834,503,3
4835,503,3
4836,504,3
4837,504,3
4838,505,3
4839,506,3
4840,506,3
4841,506,3
4842,507,3
4843,507,3
4844,506,3
4845,506,3
4846,506,3
4847,506,3
4848,505,3
4849,506,3
4850,506,3
4851,508,3
4852,509,3
4853,510,3
4854,510,3
4855,509,3
4856,509,3
4857,509,3
4858,509,3
4859,508,3
4860,508,3
4861,509,3
4862,510,3
4863,511,3
4864,512,3
4865,511,3
4866,511,3
4867,511,3
4868,510,3
4869,510,3
4870,511,3
4871,511,3
4872,512,3
4873,511,3
4874,510,3
4875,510,3
4876,510,3
4877,511,3
4878,511,3
4879,512,3
4880,511,3
4881,511,3
4882,512,3
4883,512,3
4884,511,3
4885,511,3
4886,511,3
4887,511,3
4888,509,3
4889,508,3
4890,508,3
4891,508,3
4892,508,3
4893,507,3
4894,505,3
4895,504,3
4896,506,3
4897,507,3
4898,510,3
4899,514,3
4900,520,3
4901,526,3
4902,534,3
4903,542,3
4904,551,3
4905,561,3
4906,571,3
4907,583,3
4908,595,3
4909,610,3
4910,626,3
4911,644,3
4912,663,3
4913,682,3
4914,701,3
4915,721,3
4916,741,3
4917,763,3
4918,804,3
4919,821,3
4920,845,3
4921,849,3
4922,847,3
4923,838,3
4924,824,3
4925,803,3
4926,776,3
4927,741,3
4928,699,3
4929,647,3
4930,589,3
4931,525,3
4932,457,3
4933,388,3
4934,321,3
4935,260,3
4936,203,3
4937,152,3
4938,108,3
4939,69,3
4940,35,3
4941,0,3
4942,0,3
4943,0,3
4944,8,3
4945,32,3
4946,62,3
4947,99,3
4948,140,3
4949,184,3
4950,228,3
4951,270,3
4952,310,3
4953,346,3
4954,378,3
4955,407,3
4956,432,3
4957,455,3
4958,475,3
4959,491,3
4960,505,3
4961,515,3
4962,524,3
4963,530,3
4964,534,3
4965,537,3
4966,537,3
4967,538,3
4968,539,3
4969,540,3
4970,541,3
4971,543,3
4972,545,3
4973,548,3
4974,549,3
4975,550,3
4976,552,3
4977,554,3
4978,555,3
4979,556,3
4980,555,3
4981,554,3
4982,554,3
4983,554,3
4984,553,3
4985,553,3
4986,554,3
4987,556,3
4988,558,3
4989,563,3
4990,567,3
4991,569,3
4992,569,3
4993,569,3
4994,568,3
4995,567,3
4996,565,3
4997,564,3
4998,563,3
4999,564,3
5000,564,3
5001,563,3
5002,565,3
5003,566,3
5004,568,3
5005,570,3
5006,572,3
5007,574,3
5008,574,3
5009,576,3
5010,576,3
5011,577,3
5012,576,3
5013,576,3
5014,575,3
5015,575,3
5016,574,3
5017,574,3
5018,574,3
5019,574,3
5020,575,3
5021,576,3
5022,577,3
5023,579,3
5024,581,3
5025,581,3
5026,582,3
5027,583,3
5028,583,3
5029,584,3
5030,584,3
5031,584,3
5032,585,3
5033,584,3
5034,584,3
5035,584,3
5036,586,3
5037,588,3
5038,591,3
5039,592,3
5040,592,3
5041,592,3
5042,593,3
5043,595,3
5044,596,3
5045,597,3
5046,598,3
5047,599,3
5048,600,3
5049,601,3
5050,601,3
5051,602,3
5052,602,3
5053,603,3
5054,604,3
5055,605,3
5056,605,3
5057,606,3
5058,607,3
5059,608,3
5060,615,3
5061,616,3
5062,616,3
5063,617,3
5064,619,3
5065,620,3
5066,620,3
5067,621,3
5068,623,3
5069,624,3
5070,625,3
5071,627,3
5072,628,3
5073,629,3
5074,630,3
5075,631,3
5076,632,3
5077,634,3
5078,635,3
5079,636,3
5080,639,3
5081,640,3
5082,641,3
5083,642,3
5084,644,3
5085,647,3
5086,650,3
5087,651,3
5088,653,3
5089,655,3
5090,656,3
5091,658,3
5092,659,3
5093,660,3
5094,660,3
5095,660,3
5096,662,3
5097,663,3
5098,665,3
5099,665,3
5100,666,3
5101,667,3
5102,668,3
5103,668,3
5104,668,3
5105,668,3
5106,669,3
5107,670,3
5108,671,3
5109,673,3
5110,674,3
5111,674,3
5112,675,3
5113,676,3
5114,676,3
5115,677,3
5116,677,3
5117,678,3
5118,678,3
5119,677,3
5120,678,3
5121,678,3
5122,678,3
5123,678,3
5124,678,3
5125,677,3
5126,677,3
5127,676,3
5128,675,3
5129,675,3
5130,675,3
5131,674,3
5132,674,3
5133,673,3
5134,671,3
5135,670,3
5136,670,3
5137,668,3
5138,668,3
5139,667,3
5140,666,3
5141,665,3
5142,664,3
5143,663,3
5144,662,3
5145,660,3
5146,658,3
5147,657,3
5148,655,3
5149,653,3
5150,651,3
5151,649,3
5152,646,3
5153,643,3
5154,639,3
5155,636,3
5156,634,3
5157,630,3
5158,623,3
5159,620,3
5160,618,3
5161,615,3
5162,612,3
5163,609,3
5164,606,3
5165,602,3
5166,599,3
5167,597,3
5168,595,3
5169,592,3
5170,589,3
5171,586,3
5172,583,3
5173,581,3
5174,578,3
5175,575,3
5176,572,3
5177,569,3
5178,566,3
5179,565,3
5180,562,3
5181,557,3
5182,553,3
5183,550,3
5184,548,3
5185,546,3
5186,544,3
5187,542,3
5188,540,3
5189,538,3
5190,537,3
5191,535,3
5192,533,3
5193,532,3
5194,530,3
5195,529,3
5196,528,3
5197,526,3
5198,524,3
5199,523,3
5200,521,3
5201,520,3
5202,518,3
5203,517,3
5204,516,3
5205,515,3
5206,513,3
5207,513,3
5208,512,3
5209,511,3
5210,510,3
5211,509,3
5212,509,3
5213,508,3
5214,508,3
5215,508,3
5216,509,3
5217,509,3
5218,509,3
5219,509,3
5220,509,3
5221,509,3
5222,508,3
5223,508,3
5224,507,3
5225,508,3
5226,508,3
5227,509,3
5228,510,3
5229,510,3
5230,510,3
5231,510,3
5232,509,3
5233,509,3
5234,508,3
5235,507,3
5236,507,3
5237,507,3
5238,508,3
5239,508,3
5240,508,3
5241,508,3
5242,507,3
5243,507,3
5244,508,3
5245,508,3
5246,507,3
5247,507,3
5248,508,3
5249,508,3
5250,508,3
5251,510,3
5252,510,3
5253,511,3
5254,511,3
5255,511,3
5256,511,3
5257,511,3
5258,511,3
5259,511,3
5260,511,3
5261,512,3
5262,513,3
5263,513,3
5264,512,3
5265,512,3
5266,512,3
5267,513,3
5268,513,3
5269,513,3
5270,512,3
5271,512,3
5272,511,3
5273,511,3
5274,512,3
5275,512,3
5276,512,3
5277,512,3
5278,512,3
5279,511,3
5280,511,3
5281,511,3
5282,511,3
5283,511,3
5284,511,3
5285,510,3
5286,511,3
5287,511,3
5288,512,3
5289,512,3
5290,512,3
5291,512,3
5292,512,3
5293,512,3
5294,512,3
5295,512,3
5296,512,3
5297,512,3
5298,512,3
5299,512,3
5300,512,3
5301,512,3
5302,512,3
5303,511,3
5304,511,3
5305,511,3
5306,511,3
5307,512,3
5308,512,3
5309,513,3
5310,513,3
5311,513,3
5312,512,3
5313,512,3
5314,511,3
5315,511,3
5316,511,3
5317,511,3
5318,512,3
5319,512,3
5320,512,3
5321,512,3
5322,511,3
5323,510,3
5324,510,3
5325,510,3
5326,508,3
5327,508,3
5328,508,3
5329,509,3
5330,509,3
5331,510,3
5332,509,3
5333,509,3
5334,510,3
5335,509,3
5336,509,3
5337,509,3
5338,508,3
5339,508,3
5340,509,3
5341,509,3
5342,509,3
5343,509,3
5344,509,3
5345,509,3
5346,508,3
5347,508,3
5348,508,3
5349,508,3
5350,506,3
5351,506,3
5352,506,3
5353,506,3
5354,506,3
5355,505,3
5356,505,3
5357,505,3
5358,505,3
5359,506,3
5360,506,3
5361,506,3
5362,506,3
5363,505,3
5364,504,3
5365,504,3
5366,504,3
5367,505,3
5368,505,3
5369,505,3
5370,505,3
5371,505,3
5372,505,3
5373,505,3
5374,504,3
5375,503,3
5376,504,3
5377,504,3
5378,504,3
5379,503,3
5380,503,3
5381,502,3
5382,502,3
5383,502,3
5384,501,3
5385,501,3
5386,502,3
5387,502,3
5388,501,3
5389,501,3
5390,501,3
5391,501,3
5392,500,3
5393,500,3
5394,501,3
5395,501,3
5396,502,3
5397,502,3
5398,501,3
5399,502,3
5400,503,3
5401,503,3
5402,504,3
5403,503,3
5404,503,3
5405,503,3
5406,503,3
5407,503,3
5408,503,3
5409,504,3
5410,504,3
5411,504,3
5412,504,3
5413,504,3
5414,503,3
5415,502,3
5416,502,3
5417,502,3
5418,503,3
5419,503,3
5420,504,3
5421,503,3
5422,503,3
5423,503,3
5424,504,3
5425,504,3
5426,504,3
5427,504,3
5428,505,3
5429,505,3
5430,505,3
5431,505,3
5432,505,3
5433,505,3
5434,505,3
5435,505,3
5436,504,3
5437,504,3
5438,504,3
5439,504,3
5440,503,3
5441,504,3
5442,504,3
5443,504,3
5444,504,3
5445,505,3
5446,505,3
5447,505,3
5448,505,3
5449,504,3
5450,504,3
5451,504,3
5452,503,3
5453,503,3
5454,504,3
5455,504,3
5456,504,3
5457,504,3
5458,504,3
5459,505,3
5460,505,3
5461,505,3
5462,505,3
5463,505,3
5464,505,3
5465,505,3
5466,506,3
5467,507,3
5468,508,3
5469,510,3
5470,511,3
5471,511,3
5472,511,3
5473,511,3
5474,510,3
5475,509,3
5476,509,3
5477,508,3
5478,508,3
5479,508,3
5480,508,3
5481,507,3
5482,507,3
5483,506,3
5484,505,3
5485,505,3
5486,505,3
5487,506,3
5488,507,3
5489,507,3
5490,507,3
5491,508,3
5492,508,3
5493,508,3
5494,509,3
5495,508,3
5496,508,3
5497,508,3
5498,509,3
5499,510,3
5500,510,3
5501,511,3
5502,511,3
5503,511,3
5504,510,3
5505,510,3
5506,510,3
5507,510,3
5508,511,3
5509,513,3
5510,514,3
5511,516,3
5512,517,3
5513,518,3
5514,518,3
5515,518,3
5516,519,3
5517,520,3
5518,521,3
5519,522,3
5520,523,3
5521,525,3
5522,527,3
5523,529,3
5524,530,3
5525,531,3
5526,531,3
5527,531,3
5528,532,3
5529,532,3
5530,532,3
5531,533,3
5532,534,3
5533,535,3
5534,535,3
5535,535,3
5536,535,3
5537,536,3
5538,537,3
5539,537,3
5540,538,3
5541,540,3
5542,541,3
5543,542,3
5544,543,3
5545,544,3
5546,544,3
5547,544,3
5548,545,3
5549,546,3
5550,547,3
5551,547,3
5552,547,3
5553,546,3
5554,545,3
5555,544,3
5556,542,3
5557,542,3
5558,541,3
5559,540,3
5560,539,3
5561,536,3
5562,534,3
5563,533,3
5564,532,3
5565,530,3
5566,528,3
5567,527,3
5568,526,3
5569,525,3
5570,524,3
5571,522,3
5572,521,3
5573,520,3
5574,519,3
5575,518,3
5576,517,3
5577,515,3
5578,514,3
5579,512,3
5580,511,3
5581,510,3
5582,509,3
5583,508,3
5584,508,3
5585,507,3
5586,507,3
5587,506,3
5588,505,3
5589,504,3
5590,504,3
5591,504,3
5592,503,3
5593,503,3
5594,503,3
5595,502,3
5596,501,3
5597,500,3
5598,500,3
5599,500,3
5600,499,3
5601,499,3
5602,499,3
5603,500,3
5604,500,3
5605,499,3
5606,498,3
5607,498,3
5608,499,3
5609,500,3
5610,500,3
5611,501,3
5612,502,3
5613,502,3
5614,502,3
5615,503,3
5616,503,3
5617,502,3
5618,501,3
5619,501,3
5620,501,3
5621,502,3
5622,503,3
5623,503,3
5624,503,3
5625,502,3
5626,503,3
5627,503,3
5628,502,3
5629,503,3
5630,503,3
5631,503,3
5632,504,3
5633,504,3
5634,505,3
5635,506,3
5636,506,3
5637,505,3
5638,506,3
5639,507,3
5640,507,3
5641,507,3
5642,508,3
5643,508,3
5644,508,3
5645,507,3
5646,508,3
5647,508,3
5648,508,3
5649,509,3
5650,511,3
5651,510,3
5652,511,3
5653,512,3
5654,512,3
5655,512,3
5656,512,3
5657,512,3
5658,512,3
5659,511,3
5660,511,3
5661,511,3
5662,510,3
5663,510,3
5664,508,3
5665,507,3
5666,505,3
5667,504,3
5668,503,3
5669,503,3
5670,503,3
5671,503,3
5672,504,3
5673,504,3
5674,506,3
5675,508,3
5676,512,3
5677,517,3
5678,524,3
5679,531,3
5680,538,3
5681,547,3
5682,557,3
5683,567,3
5684,577,3
5685,602,3
5686,634,3
5687,652,3
5688,672,3
5689,691,3
5690,709,3
5691,727,3
5692,746,3
5693,764,3
5694,783,3
5695,799,3
5696,816,3
5697,833,3
5698,846,3
5699,852,3
5700,851,3
5701,845,3
5702,831,3
5703,812,3
5704,784,3
5705,751,3
5706,711,3
5707,664,3
5708,611,3
5709,490,3
5710,361,3
5711,299,3
5712,241,3
5713,189,3
5714,143,3
5715,22,3
5716,9,3
5717,7,3
5718,7,3
5719,18,3
5720,35,3
5721,58,3
5722,86,3
5723,119,3
5724,154,3
5725,191,3
5726,228,3
5727,265,3
5728,299,3
5729,330,3
5730,358,3
5731,384,3
5732,407,3
5733,428,3
5734,447,3
5735,464,3
5736,478,3
5737,490,3
5738,500,3
5739,508,3
5740,516,3
5741,522,3
5742,530,3
5743,533,3
5744,538,3
5745,540,3
5746,542,3
5747,544,3
5748,545,3
5749,545,3
5750,546,3
5751,547,3
5752,547,3
5753,547,3
5754,547,3
5755,546,3
5756,545,3
5757,544,3
5758,544,3
5759,545,3
5760,546,3
5761,548,3
5762,550,3
5763,553,3
5764,556,3
5765,559,3
5766,566,3
5767,569,3
5768,569,3
5769,569,3
5770,569,3
5771,567,3
5772,566,3
5773,563,3
5774,562,3
5775,561,3
5776,562,3
5777,562,3
5778,563,3
5779,564,3
5780,565,3
5781,566,3
5782,568,3
5783,571,3
5784,573,3
5785,576,3
5786,577,3
5787,578,3
5788,578,3
5789,577,3
5790,576,3
5791,575,3
5792,575,3
5793,575,3
5794,575,3
5795,576,3
5796,577,3
5797,579,3
5798,580,3
5799,581,3
5800,582,3
5801,582,3
5802,584,3
5803,585,3
5804,586,3
5805,586,3
5806,586,3
5807,587,3
5808,587,3
5809,588,3
5810,588,3
5811,588,3
5812,588,3
5813,588,3
5814,588,3
5815,590,3
5816,592,3
5817,594,3
5818,595,3
5819,595,3
5820,595,3
5821,596,3
5822,597,3
5823,598,3
5824,599,3
5825,600,3
5826,601,3
5827,602,3
5828,603,3
5829,604,3
5830,605,3
5831,606,3
5832,607,3
5833,608,3
5834,609,3
5835,610,3
5836,611,3
5837,612,3
5838,621,3
5839,621,3
5840,623,3
5841,623,3
5842,624,3
5843,625,3
5844,627,3
5845,628,3
5846,630,3
5847,631,3
5848,632,3
5849,633,3
5850,634,3
5851,636,3
5852,638,3
5853,639,3
5854,640,3
5855,641,3
5856,643,3
5857,645,3
5858,647,3
5859,647,3
5860,649,3
5861,650,3
5862,655,3
5863,657,3
5864,660,3
5865,662,3
5866,664,3
5867,664,3
5868,666,3
5869,667,3
5870,669,3
5871,671,3
5872,673,3
5873,674,3
5874,675,3
5875,676,3
5876,677,3
5877,678,3
5878,679,3
5879,680,3
5880,680,3
5881,681,3
5882,681,3
5883,681,3
5884,682,3
5885,683,3
5886,684,3
5887,685,3
5888,688,3
5889,689,3
5890,690,3
5891,690,3
5892,690,3
5893,690,3
5894,691,3
5895,691,3
5896,692,3
5897,693,3
5898,694,3
5899,694,3
5900,694,3
5901,694,3
5902,694,3
5903,693,3
5904,692,3
5905,692,3
5906,692,3
5907,691,3
5908,691,3
5909,690,3
5910,687,3
5911,686,3
5912,685,3
5913,684,3
5914,683,3
5915,681,3
5916,679,3
5917,677,3
5918,676,3
5919,674,3
5920,672,3
5921,670,3
5922,668,3
5923,666,3
5924,664,3
5925,661,3
5926,657,3
5927,654,3
5928,652,3
5929,650,3
5930,647,3
5931,644,3
5932,641,3
5933,638,3
5934,632,3
5935,629,3
5936,623,3
5937,620,3
5938,617,3
5939,613,3
5940,610,3
5941,607,3
5942,604,3
5943,600,3
5944,597,3
5945,594,3
5946,591,3
5947,588,3
5948,585,3
5949,582,3
5950,579,3
5951,576,3
5952,573,3
5953,570,3
5954,568,3
5955,565,3
5956,563,3
5957,560,3
5958,557,3
5959,555,3
5960,549,3
5961,547,3
5962,545,3
5963,542,3
5964,541,3
5965,539,3
5966,537,3
5967,535,3
5968,533,3
5969,531,3
5970,529,3
5971,528,3
5972,526,3
5973,524,3
5974,522,3
5975,520,3
5976,519,3
5977,518,3
5978,518,3
5979,518,3
5980,518,3
5981,517,3
5982,516,3
5983,515,3
5984,514,3
5985,514,3
5986,514,3
5987,513,3
5988,513,3
5989,512,3
5990,512,3
5991,511,3
5992,510,3
5993,510,3
5994,510,3
5995,510,3
5996,510,3
5997,509,3
5998,509,3
5999,509,3
6000,509,3
6001,508,3
6002,508,3
6003,509,3
6004,509,3
6005,509,3
6006,510,3
6007,510,3
6008,511,3
6009,511,3
6010,511,3
6011,511,3
6012,511,3
6013,512,3
6014,513,3
6015,514,3
6016,514,3
6017,514,3
6018,514,3
6019,514,3
6020,515,3
6021,515,3
6022,516,3
6023,516,3
6024,516,3
6025,517,3
6026,518,3
6027,517,3
6028,518,3
6029,517,3
6030,517,3
6031,518,3
6032,518,3
6033,518,3
6034,519,3
6035,519,3
6036,518,3
6037,519,3
6038,519,3
6039,520,3
6040,520,3
6041,520,3
6042,519,3
6043,519,3
6044,519,3
6045,520,3
6046,520,3
6047,521,3
6048,521,3
6049,520,3
6050,520,3
6051,520,3
6052,520,3
6053,521,3
6054,520,3
6055,520,3
6056,521,3
6057,521,3
6058,521,3
6059,522,3
6060,521,3
6061,521,3
6062,521,3
6063,520,3
6064,520,3
6065,520,3
6066,521,3
6067,521,3
6068,522,3
6069,522,3
6070,522,3
6071,522,3
6072,523,3
6073,523,3
6074,522,3
6075,522,3
6076,522,3
6077,522,3
6078,522,3
6079,521,3
6080,521,3
6081,521,3
6082,521,3
6083,520,3
6084,520,3
6085,520,3
6086,519,3
6087,519,3
6088,519,3
6089,519,3
6090,519,3
6091,519,3
6092,519,3
6093,518,3
6094,518,3
6095,518,3
6096,517,3
6097,518,3
6098,518,3
6099,518,3
6100,517,3
6101,517,3
6102,516,3
6103,516,3
6104,515,3
6105,515,3
6106,515,3
6107,514,3
6108,514,3
6109,514,3
6110,514,3
6111,513,3
6112,513,3
6113,513,3
6114,513,3
6115,514,3
6116,514,3
6117,514,3
6118,514,3
6119,514,3
6120,514,3
6121,514,3
6122,515,3
6123,515,3
6124,514,3
6125,514,3
6126,513,3
6127,513,3
6128,514,3
6129,514,3
6130,514,3
6131,513,3
6132,512,3
6133,512,3
6134,512,3
6135,511,3
6136,511,3
6137,511,3
6138,511,3
6139,511,3
6140,510,3
6141,510,3
6142,510,3
6143,510,3
6144,511,3
6145,511,3
6146,511,3
6147,510,3
6148,510,3
6149,510,3
6150,510,3
6151,511,3
6152,511,3
6153,511,3
6154,511,3
6155,510,3
6156,510,3
6157,509,3
6158,509,3
6159,509,3
6160,509,3
6161,509,3
6162,509,3
6163,509,3
6164,509,3
6165,510,3
6166,509,3
6167,509,3
6168,510,3
6169,510,3
6170,510,3
6171,510,3
6172,511,3
6173,511,3
6174,511,3
6175,511,3
6176,511,3
6177,511,3
6178,511,3
6179,511,3
6180,511,3
6181,511,3
6182,512,3
6183,512,3
6184,512,3
6185,512,3
6186,512,3
6187,512,3
6188,511,3
6189,510,3
6190,511,3
6191,512,3
6192,511,3
6193,511,3
6194,511,3
6195,511,3
6196,511,3
6197,511,3
6198,511,3
6199,512,3
6200,512,3
6201,513,3
6202,513,3
6203,513,3
6204,513,3
6205,513,3
6206,513,3
6207,513,3
6208,513,3
6209,513,3
6210,513,3
6211,514,3
6212,514,3
6213,514,3
6214,513,3
6215,513,3
6216,513,3
6217,513,3
6218,513,3
6219,513,3
6220,513,3
6221,513,3
6222,513,3
6223,513,3
6224,513,3
6225,513,3
6226,514,3
6227,514,3
6228,514,3
6229,513,3
6230,514,3
6231,515,3
6232,515,3
6233,515,3
6234,515,3
6235,515,3
6236,515,3
6237,514,3
6238,513,3
6239,514,3
6240,515,3
6241,515,3
6242,515,3
6243,515,3
6244,515,3
6245,515,3
6246,515,3
6247,516,3
6248,516,3
6249,516,3
6250,516,3
6251,516,3
6252,516,3
6253,517,3
6254,518,3
6255,519,3
6256,518,3
6257,518,3
6258,517,3
6259,516,3
6260,515,3
6261,515,3
6262,516,3
6263,516,3
6264,516,3
6265,515,3
6266,515,3
6267,515,3
6268,514,3
6269,515,3
6270,515,3
6271,515,3
6272,513,3
6273,514,3
6274,514,3
6275,515,3
6276,515,3
6277,515,3
6278,516,3
6279,516,3
6280,517,3
6281,518,3
6282,518,3
6283,519,3
6284,520,3
6285,521,3
6286,524,3
6287,527,3
6288,529,3
6289,529,3
6290,529,3
6291,529,3
6292,529,3
6293,530,3
6294,532,3
6295,534,3
6296,535,3
6297,537,3
6298,538,3
6299,540,3
6300,541,3
6301,541,3
6302,542,3
6303,544,3
6304,545,3
6305,546,3
6306,547,3
6307,548,3
6308,549,3
6309,549,3
6310,549,3
6311,549,3
6312,548,3
6313,549,3
6314,550,3
6315,551,3
6316,553,3
6317,552,3
6318,552,3
6319,552,3
6320,553,3
6321,553,3
6322,552,3
6323,552,3
6324,552,3
6325,553,3
6326,554,3
6327,555,3
6328,556,3
6329,556,3
6330,555,3
6331,554,3
6332,552,3
6333,551,3
6334,550,3
6335,548,3
6336,547,3
6337,546,3
6338,545,3
6339,544,3
6340,543,3
6341,541,3
6342,540,3
6343,538,3
6344,536,3
6345,534,3
6346,533,3
6347,531,3
6348,529,3
6349,528,3
6350,525,3
6351,524,3
6352,523,3
6353,522,3
6354,521,3
6355,520,3
6356,518,3
6357,517,3
6358,515,3
6359,513,3
6360,512,3
6361,512,3
6362,512,3
6363,512,3
6364,512,3
6365,511,3
6366,510,3
6367,509,3
6368,509,3
6369,509,3
6370,509,3
6371,509,3
6372,509,3
6373,509,3
6374,508,3
6375,507,3
6376,506,3
6377,505,3
6378,504,3
6379,504,3
6380,505,3
6381,506,3
6382,505,3
6383,506,3
6384,505,3
6385,505,3
6386,506,3
6387,506,3
6388,506,3
6389,507,3
6390,506,3
6391,506,3
6392,506,3
6393,506,3
6394,507,3
6395,508,3
6396,508,3
6397,507,3
6398,506,3
6399,505,3
6400,505,3
6401,506,3
6402,508,3
6403,509,3
6404,509,3
6405,510,3
6406,509,3
6407,510,3
6408,510,3
6409,510,3
6410,510,3
6411,510,3
6412,511,3
6413,512,3
6414,512,3
6415,513,3
6416,513,3
6417,512,3
6418,511,3
6419,510,3
6420,510,3
6421,510,3
6422,511,3
6423,511,3
6424,512,3
6425,513,3
6426,514,3
6427,513,3
6428,514,3
6429,513,3
6430,513,3
6431,514,3
6432,514,3
6433,514,3
6434,515,3
6435,515,3
6436,515,3
6437,515,3
6438,514,3
6439,514,3
6440,514,3
6441,514,3
6442,514,3
6443,513,3
6444,511,3
6445,509,3
6446,508,3
6447,508,3
6448,509,3
6449,510,3
6450,512,3
6451,514,3
6452,518,3
6453,523,3
6454,536,3
6455,544,3
6456,563,3
6457,574,3
6458,585,3
6459,598,3
6460,612,3
6461,629,3
6462,647,3
6463,666,3
6464,685,3
6465,704,3
6466,724,3
6467,742,3
6468,762,3
6469,783,3
6470,804,3
6471,822,3
6472,837,3
6473,849,3
6474,857,3
6475,860,3
6476,855,3
6477,844,3
6478,802,3
6479,735,3
6480,689,3
6481,634,3
6482,574,3
6483,509,3
6484,441,3
6485,374,3
6486,310,3
6487,250,3
6488,196,3
6489,147,3
6490,105,3
6491,68,3
6492,37,3
6493,14,3
6494,0,3
6495,0,3
6496,6,3
6497,6,3
6498,24,3
6499,49,3
6500,81,3
6501,117,3
6502,159,3
6503,201,3
6504,243,3
6505,284,3
6506,322,3
6507,357,3
6508,388,3
6509,415,3
6510,439,3
6511,460,3
6512,478,3
6513,494,3
6514,506,3
6515,517,3
6516,530,3
6517,534,3
6518,537,3
6519,540,3
6520,540,3
6521,540,3
6522,540,3
6523,540,3
6524,541,3
6525,543,3
6526,545,3
6527,548,3
6528,551,3
6529,553,3
6530,554,3
6531,554,3
6532,555,3
6533,555,3
6534,555,3
6535,554,3
6536,554,3
6537,553,3
6538,552,3
6539,553,3
6540,558,3
6541,562,3
6542,564,3
6543,567,3
6544,569,3
6545,570,3
6546,572,3
6547,573,3
6548,574,3
6549,574,3
6550,573,3
6551,572,3
6552,569,3
6553,567,3
6554,567,3
6555,567,3
6556,568,3
6557,569,3
6558,569,3
6559,571,3
6560,573,3
6561,574,3
6562,576,3
6563,578,3
6564,580,3
6565,582,3
6566,581,3
6567,580,3
6568,579,3
6569,579,3
6570,579,3
6571,579,3
6572,580,3
6573,580,3
6574,581,3
6575,581,3
6576,582,3
6577,583,3
6578,585,3
6579,585,3
6580,586,3
6581,588,3
6582,588,3
6583,588,3
6584,588,3
6585,588,3
6586,588,3
6587,587,3
6588,588,3
6589,589,3
6590,591,3
6591,591,3
6592,593,3
6593,593,3
6594,594,3
6595,595,3
6596,596,3
6597,598,3
6598,599,3
6599,601,3
6600,602,3
6601,603,3
6602,604,3
6603,605,3
6604,605,3
6605,606,3
6606,607,3
6607,608,3
6608,610,3
6609,610,3
6610,611,3
6611,612,3
6612,614,3
6613,620,3
6614,622,3
6615,622,3
6616,623,3
6617,624,3
6618,626,3
6619,627,3
6620,628,3
6621,630,3
6622,630,3
6623,631,3
6624,631,3
6625,632,3
6626,633,3
6627,634,3
6628,635,3
6629,636,3
6630,638,3
6631,639,3
6632,641,3
6633,642,3
6634,643,3
6635,645,3
6636,648,3
6637,650,3
6638,653,3
6639,653,3
6640,656,3
6641,656,3
6642,659,3
6643,661,3
6644,663,3
6645,664,3
6646,665,3
6647,665,3
6648,666,3
6649,667,3
6650,668,3
6651,669,3
6652,670,3
6653,672,3
6654,675,3
6655,676,3
6656,677,3
6657,677,3
6658,679,3
6659,680,3
6660,682,3
6661,683,3
6662,684,3
6663,685,3
6664,686,3
6665,687,3
6666,688,3
6667,689,3
6668,690,3
6669,690,3
6670,690,3
6671,690,3
6672,689,3
6673,689,3
6674,689,3
6675,690,3
6676,690,3
6677,690,3
6678,690,3
6679,690,3
6680,691,3
6681,691,3
6682,691,3
6683,690,3
6684,690,3
6685,689,3
6686,689,3
6687,689,3
6688,689,3
6689,688,3
6690,688,3
6691,688,3
6692,687,3
6693,686,3
6694,684,3
6695,683,3
6696,681,3
6697,680,3
6698,679,3
6699,678,3
6700,676,3
6701,674,3
6702,672,3
6703,669,3
6704,667,3
6705,665,3
6706,662,3
6707,660,3
6708,656,3
6709,651,3
6710,648,3
6711,645,3
6712,642,3
6713,639,3
6714,636,3
6715,633,3
6716,630,3
6717,627,3
6718,624,3
6719,621,3
6720,618,3
6721,615,3
6722,612,3
6723,608,3
6724,604,3
6725,601,3
6726,598,3
6727,594,3
6728,591,3
6729,589,3
6730,585,3
6731,582,3
6732,576,3
6733,571,3
6734,569,3
6735,566,3
6736,563,3
6737,559,3
6738,557,3
6739,555,3
6740,553,3
6741,552,3
6742,549,3
6743,547,3
6744,545,3
6745,543,3
6746,541,3
6747,539,3
6748,537,3
6749,536,3
6750,534,3
6751,533,3
6752,531,3
6753,530,3
6754,529,3
6755,528,3
6756,525,3
6757,523,3
6758,522,3
6759,520,3
6760,519,3
6761,518,3
6762,517,3
6763,517,3
6764,516,3
6765,516,3
6766,515,3
6767,514,3
6768,513,3
6769,513,3
6770,514,3
6771,513,3
6772,513,3
6773,513,3
6774,512,3
6775,512,3
6776,511,3
6777,512,3
6778,512,3
6779,512,3
6780,513,3
6781,513,3
6782,512,3
6783,512,3
6784,511,3
6785,510,3
6786,510,3
6787,510,3
6788,511,3
6789,512,3
6790,512,3
6791,512,3
6792,512,3
6793,511,3
6794,511,3
6795,512,3
6796,512,3
6797,513,3
6798,513,3
6799,513,3
6800,513,3
6801,513,3
6802,513,3
6803,513,3
6804,514,3
6805,515,3
6806,515,3
6807,515,3
6808,514,3
6809,514,3
6810,513,3
6811,514,3
6812,514,3
6813,515,3
6814,515,3
6815,514,3
6816,514,3
6817,514,3
6818,514,3
6819,515,3
6820,515,3
6821,515,3
6822,517,3
6823,517,3
6824,517,3
6825,517,3
6826,516,3
6827,516,3
6828,516,3
6829,516,3
6830,517,3
6831,517,3
6832,517,3
6833,517,3
6834,517,3
6835,517,3
6836,518,3
6837,518,3
6838,517,3
6839,517,3
6840,518,3
6841,518,3
6842,517,3
6843,517,3
6844,518,3
6845,519,3
6846,520,3
6847,520,3
6848,520,3
6849,520,3
6850,519,3
6851,519,3
6852,519,3
6853,519,3
6854,519,3
6855,519,3
6856,519,3
6857,519,3
6858,519,3
6859,519,3
6860,518,3
6861,518,3
6862,517,3
6863,517,3
6864,517,3
6865,517,3
6866,516,3
6867,517,3
6868,517,3
6869,517,3
6870,517,3
6871,516,3
6872,516,3
6873,516,3
6874,516,3
6875,515,3
6876,515,3
6877,515,3
6878,515,3
6879,514,3
6880,513,3
6881,512,3
6882,512,3
6883,512,3
6884,512,3
6885,512,3
6886,512,3
6887,512,3
6888,512,3
6889,511,3
6890,511,3
6891,512,3
6892,512,3
6893,512,3
6894,512,3
6895,511,3
6896,510,3
6897,509,3
6898,508,3
6899,509,3
6900,509,3
6901,509,3
6902,508,3
6903,508,3
6904,508,3
6905,507,3
6906,507,3
6907,507,3
6908,506,3
6909,506,3
6910,506,3
6911,506,3
6912,506,3
6913,506,3
6914,507,3
6915,506,3
6916,506,3
6917,505,3
6918,505,3
6919,505,3
6920,505,3
6921,504,3
6922,505,3
6923,505,3
6924,503,3
6925,502,3
6926,502,3
6927,502,3
6928,501,3
6929,502,3
6930,502,3
6931,502,3
6932,503,3
6933,503,3
6934,503,3
6935,502,3
6936,502,3
6937,502,3
6938,503,3
6939,504,3
6940,504,3
6941,504,3
6942,504,3
6943,504,3
6944,504,3
6945,504,3
6946,505,3
6947,505,3
6948,503,3
6949,503,3
6950,504,3
6951,504,3
6952,504,3
6953,503,3
6954,503,3
6955,503,3
6956,503,3
6957,503,3
6958,503,3
6959,504,3
6960,504,3
6961,504,3
6962,503,3
6963,504,3
6964,504,3
6965,504,3
6966,505,3
6967,505,3
6968,504,3
6969,503,3
6970,503,3
6971,503,3
6972,505,3
6973,506,3
6974,507,3
6975,506,3
6976,505,3
6977,504,3
6978,504,3
6979,504,3
6980,505,3
6981,505,3
6982,505,3
6983,506,3
6984,506,3
6985,506,3
6986,506,3
6987,506,3
6988,507,3
6989,507,3
6990,507,3
6991,506,3
6992,505,3
6993,504,3
6994,503,3
6995,503,3
6996,504,3
6997,504,3
6998,504,3
6999,504,3
7000,505,3
7001,505,3
7002,504,3
7003,503,3
7004,503,3
7005,503,3
7006,504,3
7007,505,3
7008,505,3
7009,505,3
7010,506,3
7011,506,3
7012,507,3
7013,506,3
7014,506,3
7015,506,3
7016,506,3
7017,507,3
7018,507,3
7019,506,3
7020,507,3
7021,508,3
7022,508,3
7023,509,3
7024,509,3
7025,510,3
7026,510,3
7027,510,3
7028,510,3
7029,509,3
7030,509,3
7031,509,3
7032,509,3
7033,510,3
7034,510,3
7035,509,3
7036,510,3
7037,509,3
7038,509,3
7039,510,3
7040,510,3
7041,510,3
7042,510,3
7043,510,3
7044,510,3
7045,510,3
7046,510,3
7047,510,3
7048,510,3
7049,510,3
7050,510,3
7051,510,3
7052,511,3
7053,510,3
7054,510,3
7055,510,3
7056,510,3
7057,510,3
7058,510,3
7059,509,3
7060,508,3
7061,509,3
7062,510,3
7063,510,3
7064,511,3
7065,511,3
7066,511,3
7067,511,3
7068,510,3
7069,509,3
7070,510,3
7071,510,3
7072,510,3
7073,510,3
7074,512,3
7075,513,3
7076,514,3
7077,515,3
7078,517,3
7079,517,3
7080,519,3
7081,519,3
7082,520,3
7083,522,3
7084,523,3
7085,524,3
7086,525,3
7087,527,3
7088,529,3
7089,530,3
7090,532,3
7091,533,3
7092,536,3
7093,537,3
7094,538,3
7095,539,3
7096,540,3
7097,540,3
7098,541,3
7099,543,3
7100,543,3
7101,543,3
7102,543,3
7103,543,3
7104,543,3
7105,544,3
7106,544,3
7107,546,3
7108,547,3
7109,547,3
7110,548,3
7111,548,3
7112,549,3
7113,549,3
7114,550,3
7115,551,3
7116,551,3
7117,551,3
7118,551,3
7119,551,3
7120,552,3
7121,552,3
7122,551,3
7123,548,3
7124,547,3
7125,545,3
7126,543,3
7127,542,3
7128,540,3
7129,540,3
7130,538,3
7131,537,3
7132,537,3
7133,536,3
7134,535,3
7135,534,3
7136,533,3
7137,532,3
7138,530,3
7139,529,3
7140,527,3
7141,526,3
7142,523,3
7143,523,3
7144,521,3
7145,521,3
7146,521,3
7147,520,3
7148,519,3
7149,518,3
7150,516,3
7151,514,3
7152,513,3
7153,512,3
7154,510,3
7155,510,3
7156,510,3
7157,510,3
7158,510,3
7159,509,3
7160,508,3
7161,507,3
7162,506,3
7163,505,3
7164,505,3
7165,504,3
7166,503,3
7167,503,3
7168,502,3
7169,501,3
7170,501,3
7171,501,3
7172,500,3
7173,500,3
7174,500,3
7175,500,3
7176,501,3
7177,501,3
7178,501,3
7179,501,3
7180,501,3
7181,502,3
7182,503,3
7183,504,3
7184,504,3
7185,504,3
7186,504,3
7187,505,3
7188,506,3
7189,507,3
7190,507,3
7191,507,3
7192,506,3
7193,506,3
7194,507,3
7195,507,3
7196,508,3
7197,508,3
7198,509,3
7199,509,3
7200,508,3
7201,508,3
7202,507,3
7203,508,3
7204,509,3
7205,509,3
7206,510,3
7207,510,3
7208,509,3
7209,509,3
7210,510,3
7211,509,3
7212,508,3
7213,510,3
7214,510,3
7215,510,3
7216,511,3
7217,511,3
7218,511,3
7219,511,3
7220,511,3
7221,511,3
7222,510,3
7223,510,3
7224,510,3
7225,510,3
7226,510,3
7227,510,3
7228,510,3
7229,510,3
7230,510,3
7231,510,3
7232,510,3
7233,510,3
7234,511,3
7235,511,3
7236,511,3
7237,510,3
7238,509,3
7239,508,3
7240,507,3
7241,506,3
7242,506,3
7243,506,3
7244,507,3
7245,508,3
7246,510,3
7247,514,3
7248,519,3
7249,525,3
7250,532,3
7251,539,3
7252,547,3
7253,556,3
7254,564,3
7255,575,3
7256,588,3
7257,602,3
7258,619,3
7259,637,3
7260,675,3
7261,713,3
7262,733,3
7263,754,3
7264,776,3
7265,797,3
7266,816,3
7267,832,3
7268,844,3
7269,852,3
7270,855,3
7271,850,3
7272,839,3
7273,821,3
7274,798,3
7275,767,3
7276,728,3
7277,681,3
7278,626,3
7279,564,3
7280,499,3
7281,430,3
7282,363,3
7283,299,3
7284,186,3
7285,57,3
7286,57,3
7287,27,3
7288,5,3
7289,0,3
7290,0,3
7291,0,3
7292,3,3
7293,22,3
7294,49,3
7295,83,3
7296,121,3
7297,164,3
7298,207,3
7299,251,3
7300,291,3
7301,329,3
7302,363,3
7303,394,3
7304,421,3
7305,444,3
7306,466,3
7307,484,3
7308,499,3
7309,511,3
7310,520,3
7311,526,3
7312,530,3
7313,533,3
7314,535,3
7315,536,3
7316,537,3
7317,537,3
7318,538,3
7319,538,3
7320,539,3
7321,541,3
7322,543,3
7323,545,3
7324,548,3
7325,552,3
7326,553,3
7327,554,3
7328,554,3
7329,553,3
7330,553,3
7331,552,3
7332,552,3
7333,552,3
7334,561,3
7335,563,3
7336,566,3
7337,568,3
7338,569,3
7339,571,3
7340,571,3
7341,571,3
7342,570,3
7343,568,3
7344,566,3
7345,565,3
7346,564,3
7347,564,3
7348,565,3
7349,566,3
7350,567,3
7351,568,3
7352,570,3
7353,572,3
7354,573,3
7355,574,3
7356,576,3
7357,577,3
7358,577,3
7359,576,3
7360,575,3
7361,575,3
7362,575,3
7363,573,3
7364,573,3
7365,574,3
7366,576,3
7367,578,3
7368,580,3
7369,581,3
7370,582,3
7371,582,3
7372,583,3
7373,584,3
7374,585,3
7375,586,3
7376,587,3
7377,588,3
7378,589,3
7379,589,3
7380,589,3
7381,589,3
7382,589,3
7383,589,3
7384,590,3
7385,592,3
7386,594,3
7387,596,3
7388,597,3
7389,598,3
7390,598,3
7391,599,3
7392,600,3
7393,600,3
7394,601,3
7395,601,3
7396,602,3
7397,603,3
7398,603,3
7399,604,3
7400,605,3
7401,606,3
7402,607,3
7403,608,3
7404,609,3
7405,610,3
7406,611,3
7407,618,3
7408,620,3
7409,621,3
7410,622,3
7411,624,3
7412,625,3
7413,625,3
7414,626,3
7415,627,3
7416,628,3
7417,630,3
7418,631,3
7419,632,3
7420,633,3
7421,633,3
7422,634,3
7423,636,3
7424,637,3
7425,638,3
7426,639,3
7427,640,3
7428,642,3
7429,643,3
7430,645,3
7431,648,3
7432,650,3
7433,651,3
7434,654,3
7435,655,3
7436,656,3
7437,659,3
7438,659,3
7439,661,3
7440,663,3
7441,664,3
7442,666,3
7443,667,3
7444,668,3
7445,669,3
7446,670,3
7447,671,3
7448,673,3
7449,673,3
7450,674,3
7451,674,3
7452,674,3
7453,675,3
7454,676,3
7455,677,3
7456,678,3
7457,678,3
7458,678,3
7459,678,3
7460,678,3
7461,678,3
7462,678,3
7463,678,3
7464,679,3
7465,679,3
7466,679,3
7467,679,3
7468,679,3
7469,679,3
7470,679,3
7471,680,3
7472,680,3
7473,680,3
7474,680,3
7475,680,3
7476,679,3
7477,679,3
7478,678,3
7479,678,3
7480,676,3
7481,677,3
7482,677,3
7483,675,3
7484,674,3
7485,672,3
7486,671,3
7487,670,3
7488,668,3
7489,667,3
7490,665,3
7491,664,3
7492,663,3
7493,662,3
7494,661,3
7495,658,3
7496,655,3
7497,654,3
7498,651,3
7499,648,3
7500,646,3
7501,643,3
7502,641,3
7503,639,3
7504,636,3
7505,634,3
7506,627,3
7507,621,3
7508,618,3
7509,615,3
7510,612,3
7511,608,3
7512,605,3
7513,602,3
7514,598,3
7515,595,3
7516,592,3
7517,590,3
7518,588,3
7519,585,3
7520,582,3
7521,578,3
7522,576,3
7523,573,3
7524,571,3
7525,568,3
7526,565,3
7527,563,3
7528,560,3
7529,557,3
7530,554,3
7531,551,3
7532,549,3
7533,546,3
7534,544,3
7535,541,3
7536,538,3
7537,536,3
7538,534,3
7539,532,3
7540,531,3
7541,529,3
7542,528,3
7543,527,3
7544,525,3
7545,523,3
7546,521,3
7547,519,3
7548,517,3
7549,516,3
7550,516,3
7551,515,3
7552,514,3
7553,514,3
7554,512,3
7555,511,3
7556,510,3
7557,509,3
7558,509,3
7559,509,3
7560,508,3
7561,507,3
7562,507,3
7563,507,3
7564,506,3
7565,506,3
7566,506,3
7567,506,3
7568,507,3
7569,506,3
7570,505,3
7571,506,3
7572,507,3
7573,507,3
7574,507,3
7575,507,3
7576,506,3
7577,506,3
7578,506,3
7579,507,3
7580,507,3
7581,507,3
7582,507,3
7583,508,3
7584,508,3
7585,509,3
7586,509,3
7587,510,3
7588,510,3
7589,511,3
7590,511,3
7591,511,3
7592,510,3
7593,510,3
7594,510,3
7595,510,3
7596,511,3
7597,511,3
7598,512,3
7599,512,3
7600,512,3
7601,512,3
7602,512,3
7603,512,3
7604,512,3
7605,512,3
7606,512,3
7607,513,3
7608,514,3
7609,515,3
7610,515,3
7611,516,3
7612,516,3
7613,516,3
7614,516,3
7615,516,3
7616,516,3
7617,516,3
7618,515,3
7619,516,3
7620,516,3
7621,516,3
7622,516,3
7623,516,3
7624,516,3
7625,516,3
7626,514,3
7627,513,3
7628,513,3
7629,514,3
7630,515,3
7631,515,3
7632,515,3
7633,514,3
7634,514,3
7635,514,3
7636,514,3
7637,514,3
7638,514,3
7639,513,3
7640,513,3
7641,514,3
7642,515,3
7643,515,3
7644,515,3
7645,515,3
7646,515,3
7647,515,3
7648,515,3
7649,515,3
7650,516,3
7651,516,3
7652,516,3
7653,516,3
7654,516,3
7655,516,3
7656,517,3
7657,516,3
7658,516,3
7659,515,3
7660,515,3
7661,514,3
7662,515,3
7663,515,3
7664,515,3
7665,516,3
7666,515,3
7667,514,3
7668,514,3
7669,513,3
7670,512,3
7671,512,3
7672,513,3
7673,512,3
7674,512,3
7675,512,3
7676,512,3
7677,512,3
7678,512,3
7679,511,3
7680,511,3
7681,512,3
7682,511,3
7683,511,3
7684,511,3
7685,511,3
7686,511,3
7687,510,3
7688,510,3
7689,509,3
7690,509,3
7691,508,3
7692,508,3
7693,507,3
7694,506,3
7695,506,3
7696,506,3
7697,507,3
7698,507,3
7699,507,3
7700,507,3
7701,507,3
7702,507,3
7703,507,3
7704,507,3
7705,506,3
7706,506,3
7707,507,3
7708,507,3
7709,507,3
7710,507,3
7711,506,3
7712,506,3
7713,505,3
7714,504,3
7715,504,3
7716,504,3
7717,504,3
7718,504,3
7719,504,3
7720,504,3
7721,504,3
7722,504,3
7723,504,3
7724,505,3
7725,505,3
7726,505,3
7727,504,3
7728,504,3
7729,504,3
7730,504,3
7731,505,3
7732,505,3
7733,505,3
7734,505,3
7735,504,3
7736,505,3
7737,504,3
7738,504,3
7739,505,3
7740,504,3
7741,504,3
7742,504,3
7743,504,3
7744,504,3
7745,504,3
7746,504,3
7747,504,3
7748,505,3
7749,505,3
7750,504,3
7751,504,3
7752,504,3
7753,504,3
7754,504,3
7755,504,3
7756,505,3
7757,505,3
7758,506,3
7759,506,3
7760,506,3
7761,505,3
7762,505,3
7763,505,3
7764,506,3
7765,506,3
7766,506,3
7767,505,3
7768,505,3
7769,505,3
7770,505,3
7771,505,3
7772,505,3
7773,506,3
7774,506,3
7775,506,3
7776,505,3
7777,505,3
7778,505,3
7779,505,3
7780,505,3
7781,506,3
7782,506,3
7783,507,3
7784,507,3
7785,507,3
7786,506,3
7787,506,3
7788,507,3
7789,507,3
7790,506,3
7791,506,3
7792,507,3
7793,507,3
7794,506,3
7795,506,3
7796,507,3
7797,507,3
7798,507,3
7799,507,3
7800,507,3
7801,507,3
7802,506,3
7803,506,3
7804,506,3
7805,506,3
7806,507,3
7807,507,3
7808,508,3
7809,508,3
7810,507,3
7811,507,3
7812,507,3
7813,507,3
7814,506,3
7815,505,3
7816,505,3
7817,506,3
7818,506,3
7819,507,3
7820,508,3
7821,508,3
7822,508,3
7823,508,3
7824,508,3
7825,508,3
7826,508,3
7827,507,3
7828,508,3
7829,509,3
7830,510,3
7831,510,3
7832,511,3
7833,511,3
7834,511,3
7835,510,3
7836,510,3
7837,510,3
7838,510,3
7839,511,3
7840,512,3
7841,511,3
7842,511,3
7843,511,3
7844,512,3
7845,512,3
7846,512,3
7847,512,3
7848,512,3
7849,512,3
7850,511,3
7851,510,3
7852,510,3
7853,511,3
7854,511,3
7855,510,3
7856,510,3
7857,510,3
7858,509,3
7859,509,3
7860,509,3
7861,510,3
7862,512,3
7863,512,3
7864,514,3
7865,515,3
7866,516,3
7867,518,3
7868,520,3
7869,521,3
7870,521,3
7871,522,3
7872,523,3
7873,524,3
7874,526,3
7875,526,3
7876,528,3
7877,529,3
7878,530,3
7879,532,3
7880,533,3
7881,534,3
7882,536,3
7883,537,3
7884,537,3
7885,537,3
7886,538,3
7887,540,3
7888,540,3
7889,540,3
7890,540,3
7891,540,3
7892,540,3
7893,540,3
7894,540,3
7895,541,3
7896,543,3
7897,544,3
7898,545,3
7899,545,3
7900,546,3
7901,547,3
7902,547,3
7903,548,3
7904,548,3
7905,549,3
7906,550,3
7907,550,3
7908,550,3
7909,550,3
7910,549,3
7911,548,3
7912,544,3
7913,543,3
7914,542,3
7915,541,3
7916,540,3
7917,539,3
7918,538,3
7919,538,3
7920,536,3
7921,535,3
7922,533,3
7923,532,3
7924,529,3
7925,527,3
7926,526,3
7927,524,3
7928,523,3
7929,522,3
7930,521,3
7931,520,3
7932,519,3
7933,517,3
7934,514,3
7935,512,3
7936,510,3
7937,510,3
7938,509,3
7939,509,3
7940,508,3
7941,508,3
7942,508,3
7943,507,3
7944,506,3
7945,507,3
7946,507,3
7947,507,3
7948,506,3
7949,505,3
7950,505,3
7951,505,3
7952,505,3
7953,505,3
7954,504,3
7955,504,3
7956,503,3
7957,503,3
7958,502,3
7959,501,3
7960,501,3
7961,501,3
7962,501,3
7963,500,3
7964,501,3
7965,501,3
7966,502,3
7967,502,3
7968,502,3
7969,502,3
7970,502,3
7971,501,3
7972,501,3
7973,500,3
7974,500,3
7975,499,3
7976,500,3
7977,500,3
7978,500,3
7979,501,3
7980,502,3
7981,502,3
7982,503,3
7983,502,3
7984,503,3
7985,503,3
7986,504,3
7987,504,3
7988,504,3
7989,505,3
7990,506,3
7991,506,3
7992,507,3
7993,507,3
7994,507,3
7995,507,3
7996,506,3
7997,505,3
7998,505,3
7999,506,3
8000,507,3
8001,507,3
8002,507,3
8003,507,3
8004,508,3
8005,508,3
8006,509,3
8007,509,3
8008,508,3
8009,508,3
8010,509,3
8011,509,3
8012,509,3
8013,510,3
8014,510,3
8015,511,3
8016,511,3
8017,511,3
8018,510,3
8019,510,3
8020,510,3
8021,510,3
8022,510,3
8023,509,3
8024,509,3
8025,508,3
8026,506,3
8027,505,3
8028,504,3
8029,503,3
8030,502,3
8031,501,3
8032,503,3
8033,505,3
8034,509,3
8035,514,3
8036,521,3
8037,527,3
8038,535,3
8039,543,3
8040,552,3
8041,562,3
8042,573,3
8043,586,3
8044,600,3
8045,615,3
8046,632,3
8047,651,3
8048,670,3
8049,689,3
8050,709,3
8051,728,3
8052,748,3
8053,769,3
8054,806,3
8055,835,3
8056,844,3
8057,848,3
8058,845,3
8059,837,3
8060,821,3
8061,799,3
8062,770,3
8063,734,3
8064,691,3
8065,638,3
8066,578,3
8067,514,3
8068,447,3
8069,379,3
8070,315,3
8071,256,3
8072,200,3
8073,151,3
8074,108,3
8075,70,3
8076,38,3
8077,0,3
8078,0,3
8079,0,3
8080,13,3
8081,37,3
8082,67,3
8083,102,3
8084,141,3
8085,184,3
8086,227,3
8087,267,3
8088,304,3
8089,338,3
8090,369,3
8091,396,3
8092,421,3
8093,442,3
8094,460,3
8095,477,3
8096,491,3
8097,502,3
8098,512,3
8099,520,3
8100,525,3
8101,530,3
8102,531,3
8103,532,3
8104,533,3
8105,534,3
8106,535,3
8107,537,3
8108,540,3
8109,542,3
8110,544,3
8111,545,3
8112,546,3
8113,547,3
8114,547,3
8115,546,3
8116,544,3
8117,543,3
8118,542,3
8119,542,3
8120,543,3
8121,545,3
8122,547,3
8123,550,3
8124,553,3
8125,558,3
8126,563,3
8127,565,3
8128,566,3
8129,567,3
8130,567,3
8131,566,3
8132,566,3
8133,563,3
8134,561,3
8135,559,3
8136,559,3
8137,560,3
8138,562,3
8139,563,3
8140,564,3
8141,565,3
8142,567,3
8143,569,3
8144,570,3
8145,571,3
8146,572,3
8147,573,3
8148,573,3
8149,573,3
8150,572,3
8151,572,3
8152,571,3
8153,571,3
8154,571,3
8155,571,3
8156,572,3
8157,572,3
8158,573,3
8159,574,3
8160,576,3
8161,577,3
8162,578,3
8163,579,3
8164,579,3
8165,580,3
8166,581,3
8167,582,3
8168,582,3
8169,583,3
8170,584,3
8171,585,3
8172,585,3
8173,586,3
8174,588,3
8175,589,3
8176,590,3
8177,591,3
8178,592,3
8179,593,3
8180,594,3
8181,594,3
8182,594,3
8183,594,3
8184,594,3
8185,594,3
8186,595,3
8187,595,3
8188,597,3
8189,597,3
8190,598,3
8191,599,3
8192,600,3
8193,602,3
8194,607,3
8195,609,3
8196,610,3
8197,611,3
8198,611,3
8199,613,3
8200,614,3
8201,616,3
8202,617,3
8203,618,3
8204,618,3
8205,619,3
8206,620,3
8207,621,3
8208,622,3
8209,623,3
8210,624,3
8211,624,3
8212,625,3
8213,625,3
8214,627,3
8215,629,3
8216,631,3
8217,633,3
8218,635,3
8219,636,3
8220,637,3
8221,639,3
8222,641,3
8223,643,3
8224,645,3
8225,646,3
8226,647,3
8227,648,3
8228,649,3
8229,651,3
8230,653,3
8231,655,3
8232,657,3
8233,658,3
8234,658,3
8235,659,3
8236,660,3
8237,660,3
8238,662,3
8239,663,3
8240,665,3
8241,666,3
8242,668,3
8243,668,3
8244,669,3
8245,671,3
8246,672,3
8247,673,3
8248,674,3
8249,674,3
8250,674,3
8251,674,3
8252,675,3
8253,676,3
8254,676,3
8255,676,3
8256,676,3
8257,676,3
8258,677,3
8259,677,3
8260,677,3
8261,676,3
8262,676,3
8263,675,3
8264,675,3
8265,677,3
8266,677,3
8267,677,3
8268,677,3
8269,675,3
8270,673,3
8271,673,3
8272,673,3
8273,672,3
8274,672,3
8275,671,3
8276,670,3
8277,668,3
8278,667,3
8279,666,3
8280,664,3
8281,662,3
8282,661,3
8283,659,3
8284,658,3
8285,656,3
8286,653,3
8287,650,3
8288,648,3
8289,646,3
8290,645,3
8291,642,3
8292,640,3
8293,635,3
8294,629,3
8295,626,3
8296,623,3
8297,620,3
8298,617,3
8299,614,3
8300,611,3
8301,608,3
8302,604,3
8303,601,3
8304,597,3
8305,593,3
8306,589,3
8307,586,3
8308,583,3
8309,580,3
8310,577,3
8311,574,3
8312,571,3
8313,569,3
8314,566,3
8315,563,3
8316,560,3
8317,556,3
8318,550,3
8319,548,3
8320,546,3
8321,544,3
8322,543,3
8323,542,3
8324,539,3
8325,536,3
8326,534,3
8327,532,3
8328,530,3
8329,527,3
8330,525,3
8331,523,3
8332,522,3
8333,521,3
8334,520,3
8335,519,3
8336,518,3
8337,517,3
8338,515,3
8339,514,3
8340,513,3
8341,511,3
8342,510,3
8343,509,3
8344,508,3
8345,507,3
8346,506,3
8347,505,3
8348,505,3
8349,505,3
8350,505,3
8351,506,3
8352,505,3
8353,505,3
8354,504,3
8355,503,3
8356,503,3
8357,503,3
8358,503,3
8359,503,3
8360,503,3
8361,503,3
8362,502,3
8363,502,3
8364,501,3
8365,502,3
8366,502,3
8367,502,3
8368,502,3
8369,502,3
8370,502,3
8371,501,3
8372,501,3
8373,502,3
8374,502,3
8375,502,3
8376,503,3
8377,503,3
8378,505,3
8379,505,3
8380,505,3
8381,506,3
8382,507,3
8383,507,3
8384,506,3
8385,506,3
8386,506,3
8387,505,3
8388,505,3
8389,506,3
8390,507,3
8391,508,3
8392,507,3
8393,507,3
8394,507,3
8395,507,3
8396,507,3
8397,507,3
8398,506,3
8399,506,3
8400,507,3
8401,508,3
8402,509,3
8403,509,3
8404,510,3
8405,511,3
8406,511,3
8407,510,3
8408,510,3
8409,510,3
8410,510,3
8411,510,3
8412,511,3
8413,510,3
8414,510,3
8415,509,3
8416,510,3
8417,510,3
8418,510,3
8419,510,3
8420,510,3
8421,510,3
8422,510,3
8423,510,3
8424,510,3
8425,511,3
8426,511,3
8427,510,3
8428,510,3
8429,510,3
8430,511,3
8431,512,3
8432,512,3
8433,512,3
8434,511,3
8435,511,3
8436,511,3
8437,511,3
8438,511,3
8439,510,3
8440,510,3
8441,511,3
8442,511,3
8443,511,3
8444,510,3
8445,510,3
8446,510,3
8447,510,3
8448,510,3
8449,510,3
8450,510,3
8451,510,3
8452,510,3
8453,510,3
8454,510,3
8455,510,3
8456,510,3
8457,510,3
8458,511,3
8459,511,3
8460,510,3
8461,509,3
8462,509,3
8463,509,3
8464,508,3
8465,508,3
8466,508,3
8467,507,3
8468,506,3
8469,507,3
8470,507,3
8471,507,3
8472,507,3
8473,506,3
8474,507,3
8475,507,3
8476,506,3
8477,506,3
8478,505,3
8479,506,3
8480,506,3
8481,507,3
8482,507,3
8483,507,3
8484,507,3
8485,507,3
8486,507,3
8487,506,3
8488,505,3
8489,505,3
8490,505,3
8491,504,3
8492,504,3
8493,503,3
8494,503,3
8495,502,3
8496,502,3
8497,501,3
8498,501,3
8499,501,3
8500,501,3
8501,501,3
8502,501,3
8503,501,3
8504,502,3
8505,502,3
8506,502,3
8507,501,3
8508,500,3
8509,500,3
8510,500,3
8511,500,3
8512,500,3
8513,501,3
8514,502,3
8515,503,3
8516,503,3
8517,503,3
8518,502,3
8519,503,3
8520,503,3
8521,502,3
8522,501,3
8523,501,3
8524,501,3
8525,501,3
8526,501,3
8527,501,3
8528,501,3
8529,502,3
8530,501,3
8531,502,3
8532,501,3
8533,501,3
8534,499,3
8535,498,3
8536,499,3
8537,500,3
8538,501,3
8539,501,3
8540,501,3
8541,501,3
8542,501,3
8543,501,3
8544,500,3
8545,500,3
8546,499,3
8547,499,3
8548,498,3
8549,498,3
8550,499,3
8551,499,3
8552,500,3
8553,500,3
8554,500,3
8555,500,3
8556,500,3
8557,500,3
8558,500,3
8559,501,3
8560,501,3
8561,501,3
8562,501,3
8563,502,3
8564,501,3
8565,501,3
8566,503,3
8567,503,3
8568,504,3
8569,504,3
8570,503,3
8571,503,3
8572,502,3
8573,503,3
8574,503,3
8575,503,3
8576,503,3
8577,503,3
8578,503,3
8579,503,3
8580,504,3
8581,504,3
8582,505,3
8583,506,3
8584,506,3
8585,505,3
8586,505,3
8587,504,3
8588,504,3
8589,505,3
8590,506,3
8591,507,3
8592,507,3
8593,506,3
8594,507,3
8595,507,3
8596,507,3
8597,507,3
8598,508,3
8599,508,3
8600,507,3
8601,507,3
8602,507,3
8603,508,3
8604,508,3
8605,508,3
8606,508,3
8607,507,3
8608,507,3
8609,507,3
8610,508,3
8611,508,3
8612,508,3
8613,508,3
8614,506,3
8615,506,3
8616,507,3
8617,508,3
8618,508,3
8619,509,3
8620,509,3
8621,509,3
8622,509,3
8623,508,3
8624,507,3
8625,507,3
8626,507,3
8627,507,3
8628,507,3
8629,508,3
8630,509,3
8631,508,3
8632,508,3
8633,508,3
8634,508,3
8635,509,3
8636,511,3
8637,511,3
8638,513,3
8639,520,3
8640,521,3
8641,521,3
8642,521,3
8643,522,3
8644,523,3
8645,523,3
8646,523,3
8647,524,3
8648,526,3
8649,527,3
8650,528,3
8651,530,3
8652,531,3
8653,532,3
8654,533,3
8655,533,3
8656,534,3
8657,535,3
8658,536,3
8659,537,3
8660,538,3
8661,538,3
8662,539,3
8663,540,3
8664,541,3
8665,541,3
8666,543,3
8667,544,3
8668,546,3
8669,547,3
8670,548,3
8671,549,3
8672,549,3
8673,549,3
8674,549,3
8675,549,3
8676,550,3
8677,550,3
8678,551,3
8679,552,3
8680,551,3
8681,550,3
8682,548,3
8683,546,3
8684,544,3
8685,543,3
8686,541,3
8687,538,3
8688,537,3
8689,537,3
8690,536,3
8691,535,3
8692,534,3
8693,533,3
8694,533,3
8695,532,3
8696,530,3
8697,528,3
8698,527,3
8699,526,3
8700,525,3
8701,525,3
8702,525,3
8703,524,3
8704,522,3
8705,521,3
8706,519,3
8707,518,3
8708,517,3
8709,516,3
8710,513,3
8711,513,3
8712,513,3
8713,512,3
8714,512,3
8715,512,3
8716,511,3
8717,511,3
8718,510,3
8719,509,3
8720,509,3
8721,509,3
8722,509,3
8723,509,3
8724,508,3
8725,508,3
8726,507,3
8727,507,3
8728,506,3
8729,506,3
8730,506,3
8731,505,3
8732,505,3
8733,505,3
8734,505,3
8735,506,3
8736,507,3
8737,507,3
8738,507,3
8739,508,3
8740,508,3
8741,506,3
8742,505,3
8743,505,3
8744,505,3
8745,506,3
8746,506,3
8747,507,3
8748,507,3
8749,505,3
8750,505,3
8751,506,3
8752,506,3
8753,507,3
8754,507,3
8755,508,3
8756,508,3
8757,509,3
8758,509,3
8759,509,3
8760,510,3
8761,510,3
8762,510,3
8763,510,3
8764,511,3
8765,511,3
8766,510,3
8767,510,3
8768,509,3
8769,510,3
8770,510,3
8771,511,3
8772,511,3
8773,511,3
8774,511,3
8775,511,3
8776,513,3
8777,513,3
8778,513,3
8779,513,3
8780,514,3
8781,513,3
8782,514,3
8783,515,3
8784,515,3
8785,514,3
8786,514,3
8787,515,3
8788,514,3
8789,514,3
8790,514,3
8791,515,3
8792,515,3
8793,515,3
8794,514,3
8795,513,3
8796,513,3
8797,513,3
8798,510,3
8799,510,3
8800,510,3
8801,511,3
8802,512,3
8803,514,3
8804,518,3
8805,524,3
8806,529,3
8807,537,3
8808,545,3
8809,554,3
8810,564,3
8811,574,3
8812,585,3
8813,596,3
8814,610,3
8815,625,3
8816,642,3
8817,659,3
8818,678,3
8819,697,3
8820,715,3
8821,734,3
8822,771,3
8823,808,3
8824,825,3
8825,841,3
8826,853,3
8827,860,3
8828,860,3
8829,855,3
8830,843,3
8831,825,3
8832,800,3
8833,769,3
8834,730,3
8835,684,3
8836,631,3
8837,572,3
8838,510,3
8839,444,3
8840,379,3
8841,317,3
8842,258,3
8843,203,3
8844,154,3
8845,112,3
8846,46,3
8847,23,3
8848,7,3
8849,2,3
8850,12,3
8851,28,3
8852,50,3
8853,79,3
8854,111,3
8855,147,3
8856,186,3
8857,225,3
8858,264,3
8859,300,3
8860,334,3
8861,365,3
8862,393,3
8863,417,3
8864,438,3
8865,457,3
8866,473,3
8867,487,3
8868,499,3
8869,510,3
8870,519,3
8871,526,3
8872,531,3
8873,536,3
8874,539,3
8875,541,3
8876,543,3
8877,545,3
8878,547,3
8879,548,3
8880,549,3
8881,551,3
8882,552,3
8883,553,3
8884,555,3
8885,556,3
8886,556,3
8887,556,3
8888,555,3
8889,555,3
8890,555,3
8891,555,3
8892,556,3
8893,557,3
8894,560,3
8895,563,3
8896,567,3
8897,570,3
8898,572,3
8899,575,3
8900,576,3
8901,576,3
8902,576,3
8903,575,3
8904,574,3
8905,572,3
8906,571,3
8907,569,3
8908,568,3
8909,569,3
8910,570,3
8911,572,3
8912,573,3
8913,575,3
8914,577,3
8915,580,3
8916,586,3
8917,586,3
8918,586,3
8919,586,3
8920,586,3
8921,585,3
8922,585,3
8923,585,3
8924,585,3
8925,585,3
8926,586,3
8927,587,3
8928,588,3
8929,589,3
8930,590,3
8931,591,3
8932,592,3
8933,593,3
8934,593,3
8935,594,3
8936,594,3
8937,594,3
8938,593,3
8939,592,3
8940,592,3
8941,593,3
8942,594,3
8943,595,3
8944,598,3
8945,599,3
8946,601,3
8947,601,3
8948,602,3
8949,603,3
8950,604,3
8951,606,3
8952,606,3
8953,607,3
8954,609,3
8955,610,3
8956,611,3
8957,612,3
8958,613,3
8959,613,3
8960,613,3
8961,613,3
8962,613,3
8963,614,3
8964,615,3
8965,616,3
8966,617,3
8967,620,3
8968,627,3
8969,629,3
8970,630,3
8971,632,3
8972,634,3
8973,636,3
8974,637,3
8975,638,3
8976,639,3
8977,640,3
8978,640,3
8979,641,3
8980,642,3
8981,645,3
8982,646,3
8983,648,3
8984,649,3
8985,649,3
8986,650,3
8987,652,3
8988,653,3
8989,656,3
8990,658,3
8991,660,3
8992,663,3
8993,665,3
8994,667,3
8995,670,3
8996,673,3
8997,675,3
8998,676,3
8999,676,3
9000,677,3
9001,679,3
9002,680,3
9003,682,3
9004,683,3
9005,685,3
9006,687,3
9007,688,3
9008,688,3
9009,689,3
9010,689,3
9011,689,3
9012,690,3
9013,691,3
9014,692,3
9015,693,3
9016,695,3
9017,696,3
9018,697,3
9019,697,3
9020,697,3
9021,697,3
9022,698,3
9023,697,3
9024,697,3
9025,698,3
9026,699,3
9027,700,3
9028,700,3
9029,700,3
9030,700,3
9031,700,3
9032,699,3
9033,699,3
9034,699,3
9035,699,3
9036,699,3
9037,699,3
9038,698,3
9039,697,3
9040,696,3
9041,696,3
9042,694,3
9043,693,3
9044,692,3
9045,691,3
9046,690,3
9047,689,3
9048,686,3
9049,684,3
9050,682,3
9051,680,3
9052,677,3
9053,675,3
9054,672,3
9055,669,3
9056,667,3
9057,665,3
9058,662,3
9059,660,3
9060,658,3
9061,655,3
9062,652,3
9063,647,3
9064,641,3
9065,636,3
9066,633,3
9067,629,3
9068,626,3
9069,623,3
9070,620,3
9071,617,3
9072,614,3
9073,611,3
9074,607,3
9075,604,3
9076,601,3
9077,597,3
9078,593,3
9079,590,3
9080,587,3
9081,584,3
9082,582,3
9083,579,3
9084,576,3
9085,573,3
9086,570,3
9087,567,3
9088,561,3
9089,559,3
9090,554,3
9091,554,3
9092,553,3
9093,551,3
9094,549,3
9095,547,3
9096,545,3
9097,544,3
9098,542,3
9099,541,3
9100,540,3
9101,538,3
9102,537,3
9103,536,3
9104,535,3
9105,534,3
9106,533,3
9107,532,3
9108,531,3
9109,530,3
9110,529,3
9111,528,3
9112,527,3
9113,526,3
9114,525,3
9115,525,3
9116,523,3
9117,523,3
9118,522,3
9119,520,3
9120,520,3
9121,519,3
9122,518,3
9123,517,3
9124,517,3
9125,517,3
9126,518,3
9127,518,3
9128,517,3
9129,517,3
9130,516,3
9131,516,3
9132,516,3
9133,516,3
9134,517,3
9135,517,3
9136,517,3
9137,518,3
9138,518,3
9139,518,3
9140,518,3
9141,518,3
9142,518,3
9143,519,3
9144,519,3
9145,519,3
9146,519,3
9147,519,3
9148,519,3
9149,519,3
9150,518,3
9151,518,3
9152,518,3
9153,518,3
9154,518,3
9155,518,3
9156,518,3
9157,518,3
9158,518,3
9159,519,3
9160,521,3
9161,521,3
9162,522,3
9163,522,3
9164,522,3
9165,522,3
9166,523,3
9167,523,3
9168,524,3
9169,525,3
9170,527,3
9171,528,3
9172,528,3
9173,529,3
9174,528,3
9175,527,3
9176,527,3
9177,526,3
9178,527,3
9179,527,3
9180,527,3
9181,526,3
9182,526,3
9183,524,3
9184,523,3
9185,524,3
9186,525,3
9187,525,3
9188,525,3
9189,526,3
9190,526,3
9191,526,3
9192,527,3
9193,527,3
9194,528,3
9195,528,3
9196,528,3
9197,528,3
9198,528,3
9199,529,3
9200,529,3
9201,530,3
9202,530,3
9203,529,3
9204,528,3
9205,528,3
9206,527,3
9207,527,3
9208,527,3
9209,526,3
9210,527,3
9211,527,3
9212,527,3
9213,527,3
9214,527,3
9215,526,3
9216,526,3
9217,527,3
9218,527,3
9219,526,3
9220,525,3
9221,525,3
9222,525,3
9223,525,3
9224,524,3
9225,524,3
9226,524,3
9227,524,3
9228,524,3
9229,524,3
9230,524,3
9231,524,3
9232,524,3
9233,525,3
9234,525,3
9235,525,3
9236,524,3
9237,523,3
9238,522,3
9239,523,3
9240,523,3
9241,523,3
9242,523,3
9243,523,3
9244,521,3
9245,521,3
9246,522,3
9247,522,3
9248,523,3
9249,522,3
9250,522,3
9251,521,3
9252,521,3
9253,520,3
9254,520,3
9255,520,3
9256,520,3
9257,519,3
9258,519,3
9259,518,3
9260,518,3
9261,518,3
9262,518,3
9263,517,3
9264,517,3
9265,517,3
9266,516,3
9267,517,3
9268,516,3
9269,516,3
9270,516,3
9271,516,3
9272,517,3
9273,516,3
9274,516,3
9275,515,3
9276,514,3
9277,513,3
9278,513,3
9279,513,3
9280,512,3
9281,511,3
9282,512,3
9283,512,3
9284,511,3
9285,511,3
9286,511,3
9287,511,3
9288,511,3
9289,511,3
9290,511,3
9291,512,3
9292,512,3
9293,513,3
9294,514,3
9295,514,3
9296,513,3
9297,513,3
9298,514,3
9299,514,3
9300,514,3
9301,514,3
9302,513,3
9303,514,3
9304,514,3
9305,514,3
9306,513,3
9307,513,3
9308,513,3
9309,513,3
9310,514,3
9311,514,3
9312,515,3
9313,514,3
9314,514,3
9315,515,3
9316,514,3
9317,514,3
9318,514,3
9319,515,3
9320,515,3
9321,516,3
9322,516,3
9323,515,3
9324,515,3
9325,516,3
9326,515,3
9327,514,3
9328,513,3
9329,513,3
9330,513,3
9331,514,3
9332,514,3
9333,514,3
9334,514,3
9335,514,3
9336,513,3
9337,513,3
9338,513,3
9339,513,3
9340,514,3
9341,514,3
9342,515,3
9343,515,3
9344,515,3
9345,515,3
9346,514,3
9347,514,3
9348,514,3
9349,515,3
9350,516,3
9351,516,3
9352,516,3
9353,516,3
9354,515,3
9355,515,3
9356,514,3
9357,515,3
9358,515,3
9359,516,3
9360,515,3
9361,515,3
9362,514,3
9363,514,3
9364,514,3
9365,516,3
9366,517,3
9367,517,3
9368,517,3
9369,517,3
9370,518,3
9371,517,3
9372,517,3
9373,517,3
9374,518,3
9375,518,3
9376,519,3
9377,520,3
9378,520,3
9379,519,3
9380,518,3
9381,518,3
9382,518,3
9383,517,3
9384,517,3
9385,516,3
9386,517,3
9387,517,3
9388,517,3
9389,517,3
9390,516,3
9391,516,3
9392,516,3
9393,516,3
9394,517,3
9395,517,3
9396,517,3
9397,517,3
9398,517,3
9399,518,3
9400,520,3
9401,520,3
9402,520,3
9403,520,3
9404,520,3
9405,520,3
9406,520,3
9407,521,3
9408,521,3
9409,521,3
9410,521,3
9411,520,3
9412,520,3
9413,521,3
9414,521,3
9415,521,3
9416,522,3
9417,523,3
9418,525,3
9419,526,3
9420,527,3
9421,526,3
9422,528,3
9423,529,3
9424,531,3
9425,532,3
9426,532,3
9427,533,3
9428,534,3
9429,535,3
9430,536,3
9431,537,3
9432,538,3
9433,539,3
9434,541,3
9435,543,3
9436,544,3
9437,545,3
9438,545,3
9439,546,3
9440,547,3
9441,548,3
9442,548,3
9443,549,3
9444,549,3
9445,550,3
9446,550,3
9447,550,3
9448,550,3
9449,553,3
9450,555,3
9451,555,3
9452,556,3
9453,556,3
9454,556,3
9455,556,3
9456,557,3
9457,558,3
9458,558,3
9459,558,3
9460,559,3
9461,559,3
9462,559,3
9463,558,3
9464,556,3
9465,554,3
9466,553,3
9467,552,3
9468,551,3
9469,550,3
9470,546,3
9471,545,3
9472,544,3
9473,542,3
9474,541,3
9475,539,3
9476,537,3
9477,536,3
9478,534,3
9479,533,3
9480,532,3
9481,530,3
9482,529,3
9483,527,3
9484,527,3
9485,525,3
9486,525,3
9487,524,3
9488,524,3
9489,523,3
9490,521,3
9491,519,3
9492,519,3
9493,518,3
9494,518,3
9495,517,3
9496,516,3
9497,516,3
9498,515,3
9499,515,3
9500,515,3
9501,514,3
9502,513,3
9503,512,3
9504,511,3
9505,510,3
9506,509,3
9507,508,3
9508,508,3
9509,507,3
9510,507,3
9511,506,3
9512,505,3
9513,505,3
9514,505,3
9515,506,3
9516,507,3
9517,508,3
9518,508,3
9519,508,3
9520,510,3
9521,510,3
9522,510,3
9523,511,3
9524,512,3
9525,513,3
9526,513,3
9527,513,3
9528,513,3
9529,513,3
9530,513,3
9531,513,3
9532,514,3
9533,516,3
9534,516,3
9535,516,3
9536,516,3
9537,515,3
9538,516,3
9539,516,3
9540,516,3
9541,516,3
9542,516,3
9543,516,3
9544,514,3
9545,514,3
9546,514,3
9547,514,3
9548,515,3
9549,515,3
9550,515,3
9551,516,3
9552,517,3
9553,517,3
9554,517,3
9555,518,3
9556,519,3
9557,520,3
9558,521,3
9559,521,3
9560,521,3
9561,521,3
9562,520,3
9563,521,3
9564,521,3
9565,520,3
9566,520,3
9567,520,3
9568,520,3
9569,519,3
9570,519,3
9571,520,3
9572,520,3
9573,518,3
9574,517,3
9575,516,3
9576,515,3
9577,514,3
9578,512,3
9579,512,3
9580,512,3
9581,512,3
9582,513,3
9583,514,3
9584,515,3
9585,519,3
9586,523,3
9587,528,3
9588,535,3
9589,541,3
9590,559,3
9591,568,3
9592,591,3
9593,604,3
9594,620,3
9595,637,3
9596,655,3
9597,674,3
9598,692,3
9599,713,3
9600,732,3
9601,754,3
9602,777,3
9603,798,3
9604,817,3
9605,834,3
9606,848,3
9607,858,3
9608,862,3
9609,858,3
9610,849,3
9611,833,3
9612,811,3
9613,781,3
9614,698,3
9615,643,3
9616,446,3
9617,446,3
9618,378,3
9619,313,3
9620,252,3
9621,63,3
9622,32,3
9623,7,3
9624,0,3
9625,0,3
9626,0,3
9627,0,3
9628,19,3
9629,46,3
9630,79,3
9631,118,3
9632,161,3
9633,205,3
9634,249,3
9635,290,3
9636,329,3
9637,366,3
9638,398,3
9639,425,3
9640,449,3
9641,470,3
9642,487,3
9643,502,3
9644,515,3
9645,525,3
9646,531,3
9647,536,3
9648,539,3
9649,542,3
9650,544,3
9651,544,3
9652,545,3
9653,545,3
9654,546,3
9655,547,3
9656,549,3
9657,551,3
9658,553,3
9659,555,3
9660,556,3
9661,558,3
9662,559,3
9663,559,3
9664,559,3
9665,558,3
9666,556,3
9667,555,3
9668,554,3
9669,555,3
9670,557,3
9671,558,3
9672,560,3
9673,565,3
9674,567,3
9675,572,3
9676,572,3
9677,574,3
9678,576,3
9679,576,3
9680,576,3
9681,575,3
9682,573,3
9683,572,3
9684,570,3
9685,569,3
9686,569,3
9687,569,3
9688,569,3
9689,571,3
9690,574,3
9691,575,3
9692,577,3
9693,579,3
9694,580,3
9695,582,3
9696,583,3
9697,584,3
9698,584,3
9699,584,3
9700,584,3
9701,584,3
9702,583,3
9703,583,3
9704,583,3
9705,583,3
9706,584,3
9707,585,3
9708,586,3
9709,587,3
9710,589,3
9711,590,3
9712,591,3
9713,591,3
9714,592,3
9715,592,3
9716,592,3
9717,593,3
9718,593,3
9719,594,3
9720,595,3
9721,596,3
9722,597,3
9723,598,3
9724,598,3
9725,598,3
9726,599,3
9727,600,3
9728,601,3
9729,602,3
9730,603,3
9731,603,3
9732,604,3
9733,605,3
9734,606,3
9735,606,3
9736,607,3
9737,607,3
9738,608,3
9739,609,3
9740,610,3
9741,610,3
9742,611,3
9743,612,3
9744,613,3
9745,615,3
9746,618,3
9747,618,3
9748,619,3
9749,621,3
9750,622,3
9751,623,3
9752,624,3
9753,625,3
9754,626,3
9755,626,3
9756,626,3
9757,627,3
9758,628,3
9759,628,3
9760,629,3
9761,630,3
9762,632,3
9763,633,3
9764,634,3
9765,636,3
9766,637,3
9767,638,3
9768,639,3
9769,641,3
9770,642,3
9771,643,3
9772,643,3
9773,645,3
9774,647,3
9775,648,3
9776,650,3
9777,652,3
9778,653,3
9779,654,3
9780,656,3
9781,656,3
9782,658,3
9783,659,3
9784,660,3
9785,661,3
9786,662,3
9787,662,3
9788,662,3
9789,663,3
9790,665,3
9791,666,3
9792,667,3
9793,669,3
9794,669,3
9795,670,3
9796,670,3
9797,670,3
9798,670,3
9799,670,3
9800,671,3
9801,672,3
9802,673,3
9803,673,3
9804,674,3
9805,674,3
9806,674,3
9807,673,3
9808,673,3
9809,673,3
9810,673,3
9811,673,3
9812,673,3
9813,673,3
9814,674,3
9815,675,3
9816,675,3
9817,674,3
9818,674,3
9819,674,3
9820,674,3
9821,674,3
9822,675,3
9823,675,3
9824,674,3
9825,674,3
9826,673,3
9827,672,3
9828,672,3
9829,671,3
9830,671,3
9831,670,3
9832,669,3
9833,668,3
9834,666,3
9835,663,3
9836,661,3
9837,659,3
9838,657,3
9839,655,3
9840,652,3
9841,649,3
9842,647,3
9843,642,3
9844,642,3
9845,639,3
9846,636,3
9847,634,3
9848,631,3
9849,628,3
9850,625,3
9851,622,3
9852,619,3
9853,617,3
9854,615,3
9855,612,3
9856,609,3
9857,606,3
9858,604,3
9859,600,3
9860,597,3
9861,593,3
9862,590,3
9863,588,3
9864,586,3
9865,581,3
9866,578,3
9867,573,3
9868,573,3
9869,570,3
9870,567,3
9871,564,3
9872,562,3
9873,560,3
9874,559,3
9875,557,3
9876,554,3
9877,553,3
9878,551,3
9879,549,3
9880,547,3
9881,544,3
9882,543,3
9883,543,3
9884,542,3
9885,540,3
9886,539,3
9887,538,3
9888,537,3
9889,533,3
9890,531,3
9891,528,3
9892,528,3
9893,528,3
9894,526,3
9895,525,3
9896,524,3
9897,523,3
9898,521,3
9899,521,3
9900,520,3
9901,520,3
9902,519,3
9903,519,3
9904,518,3
9905,516,3
9906,516,3
9907,515,3
9908,515,3
9909,516,3
9910,516,3
9911,516,3
9912,516,3
9913,516,3
9914,515,3
9915,515,3
9916,515,3
9917,515,3
9918,515,3
9919,515,3
9920,514,3
9921,514,3
9922,514,3
9923,514,3
9924,513,3
9925,513,3
9926,513,3
9927,512,3
9928,512,3
9929,512,3
9930,512,3
9931,512,3
9932,512,3
9933,512,3
9934,512,3
9935,512,3
9936,513,3
9937,512,3
9938,513,3
9939,514,3
9940,514,3
9941,514,3
9942,514,3
9943,514,3
9944,514,3
9945,514,3
9946,514,3
9947,514,3
9948,514,3
9949,515,3
9950,515,3
9951,515,3
9952,515,3
9953,515,3
9954,516,3
9955,516,3
9956,516,3
9957,515,3
9958,515,3
9959,516,3
9960,516,3
9961,516,3
9962,517,3
9963,517,3
9964,517,3
9965,518,3
9966,518,3
9967,518,3
9968,517,3
9969,518,3
9970,517,3
9971,517,3
9972,517,3
9973,516,3
9974,516,3
9975,517,3
9976,517,3
9977,517,3
9978,517,3
9979,516,3
9980,516,3
9981,516,3
9982,516,3
9983,515,3
9984,515,3
9985,516,3
9986,517,3
9987,518,3
9988,518,3
9989,518,3
9990,517,3
9991,517,3
9992,517,3
9993,517,3
9994,517,3
9995,517,3
9996,517,3
9997,517,3
9998,518,3
9999,518,3
10000,520,3
10001,520,3
10002,521,3
10003,520,3
10004,519,3
10005,518,3
10006,517,3
10007,517,3
10008,516,3
10009,516,3
10010,515,3
10011,515,3
10012,515,3
10013,514,3
10014,513,3
10015,512,3
10016,512,3
10017,511,3
10018,512,3
10019,512,3
10020,512,3
10021,512,3
10022,512,3
10023,512,3
10024,512,3
10025,512,3
10026,512,3
10027,513,3
10028,513,3
10029,514,3
10030,514,3
10031,514,3
10032,514,3
10033,514,3
10034,514,3
10035,515,3
10036,515,3
10037,514,3
10038,513,3
10039,512,3
10040,512,3
10041,512,3
10042,511,3
10043,510,3
10044,510,3
10045,509,3
10046,508,3
10047,508,3
10048,508,3
10049,507,3
10050,507,3
10051,507,3
10052,507,3
10053,506,3
10054,506,3
10055,507,3
10056,507,3
10057,507,3
10058,508,3
10059,509,3
10060,509,3
10061,509,3
10062,509,3
10063,509,3
10064,508,3
10065,508,3
10066,508,3
10067,508,3
10068,508,3
10069,508,3
10070,509,3
10071,509,3
10072,508,3
10073,508,3
10074,508,3
10075,507,3
10076,507,3
10077,507,3
10078,506,3
10079,505,3
10080,505,3
10081,505,3
10082,506,3
10083,505,3
10084,505,3
10085,505,3
10086,505,3
10087,504,3
10088,504,3
10089,504,3
10090,504,3
10091,504,3
10092,504,3
10093,504,3
10094,504,3
10095,504,3
10096,503,3
10097,503,3
10098,503,3
10099,503,3
